# OpenSignals Text File Format. Version 1
# {"00:07:80:4D:33:A1": {"position": 0, "device": "biosignalsplux", "device name": "00:07:80:4D:33:A1", "device connection": "BTH00:07:80:4D:33:A1", "sampling rate": 1000, "resolution": [16], "firmware version": 775, "comments": "", "keywords": "", "mode": 0, "sync interval": 2, "date": "2024-5-14", "time": "9:38:37.571", "channels": [1], "sensor": ["EMG"], "label": ["CH1"], "column": ["nSeq", "DI", "CH1"], "special": [{"SpO2": [80, 40, 5, 4, 3, 3]}, {"SpO2": [80, 40, 5, 4, 3, 3]}, {"SpO2": [80, 40, 5, 4, 3, 3]}, {"SpO2": [80, 40, 5, 4, 3, 3]}, {"SpO2": [80, 40, 5, 4, 3, 3]}, {"SpO2": [80, 40, 5, 4, 3, 3]}, {"SpO2": [80, 40, 5, 4, 3, 3]}, {"SpO2": [80, 40, 5, 4, 3, 3]}], "digital IO": [0, 1], "sleeve color": ["dark_blue"]}}
# EndOfHeader
0	0	32852	
1	0	32800	
2	0	32884	
3	0	32824	
4	0	32844	
5	0	32792	
6	0	32844	
7	0	32784	
8	0	32814	
9	0	32780	
10	0	32772	
11	0	32772	
12	0	32864	
13	0	32788	
14	0	32744	
15	0	32792	
16	0	32856	
17	0	32830	
18	0	32916	
19	0	32856	
20	0	32792	
21	0	32860	
22	0	32837	
23	0	32848	
24	0	32856	
25	0	32824	
26	0	32832	
27	0	32820	
28	0	32840	
29	0	32756	
30	0	32768	
31	0	32844	
32	0	32804	
33	0	32796	
34	0	32748	
35	0	32856	
36	0	32830	
37	0	32824	
38	0	32816	
39	0	32896	
40	0	32788	
41	0	32824	
42	0	32892	
43	0	32848	
44	0	32836	
45	0	32876	
46	0	32856	
47	0	32800	
48	0	32756	
49	0	32804	
50	0	32780	
51	0	32838	
52	0	32800	
53	0	32792	
54	0	32872	
55	0	32796	
56	0	32836	
57	0	32836	
58	0	32844	
59	0	32868	
60	0	32844	
61	0	32760	
62	0	32856	
63	0	32828	
64	0	32776	
65	0	32832	
66	0	32800	
67	0	32816	
68	0	32784	
69	0	32828	
70	0	32908	
71	0	32800	
72	0	32768	
73	0	32768	
74	0	32800	
75	0	32796	
76	0	32848	
77	0	32824	
78	0	32764	
79	0	32844	
80	0	32885	
81	0	32888	
82	0	32768	
83	0	32840	
84	0	32864	
85	0	32880	
86	0	32816	
87	0	32776	
88	0	32872	
89	0	32800	
90	0	32856	
91	0	32808	
92	0	32776	
93	0	32768	
94	0	32784	
95	0	32844	
96	0	32812	
97	0	32796	
98	0	32864	
99	0	32844	
100	0	32800	
101	0	32888	
102	0	32892	
103	0	32884	
104	0	32816	
105	0	32820	
106	0	32776	
107	0	32852	
108	0	32820	
109	0	32796	
110	0	32788	
111	0	32796	
112	0	32772	
113	0	32824	
114	0	32788	
115	0	32796	
116	0	32824	
117	0	32840	
118	0	32808	
119	0	32844	
120	0	32812	
121	0	32824	
122	0	32800	
123	0	32826	
124	0	32828	
125	0	32840	
126	0	32842	
127	0	32836	
128	0	32848	
129	0	32774	
130	0	32724	
131	0	32804	
132	0	32744	
133	0	32836	
134	0	32876	
135	0	32844	
136	0	32824	
137	0	32840	
138	0	32832	
139	0	32808	
140	0	32896	
141	0	32880	
142	0	32768	
143	0	32856	
144	0	32904	
145	0	32836	
146	0	32768	
147	0	32816	
148	0	32826	
149	0	32870	
150	0	32848	
151	0	32800	
152	0	32836	
153	0	32836	
154	0	32820	
155	0	32768	
156	0	32772	
157	0	32752	
158	0	32816	
159	0	32828	
160	0	32876	
161	0	32904	
162	0	32840	
163	0	32858	
164	0	32844	
165	0	32860	
166	0	32840	
167	0	32840	
168	0	32810	
169	0	32821	
170	0	32852	
171	0	32720	
172	0	32796	
173	0	32796	
174	0	32828	
175	0	32836	
176	0	32784	
177	0	32844	
178	0	32828	
179	0	32812	
180	0	32800	
181	0	32908	
182	0	32836	
183	0	32796	
184	0	32856	
185	0	32784	
186	0	32808	
187	0	32840	
188	0	32836	
189	0	32820	
190	0	32788	
191	0	32816	
192	0	32832	
193	0	32864	
194	0	32856	
195	0	32784	
196	0	32808	
197	0	32812	
198	0	32784	
199	0	32876	
200	0	32768	
201	0	32810	
202	0	32872	
203	0	32840	
204	0	32808	
205	0	32804	
206	0	32888	
207	0	32868	
208	0	32848	
209	0	32820	
210	0	32824	
211	0	32804	
212	0	32784	
213	0	32776	
214	0	32816	
215	0	32746	
216	0	32836	
217	0	32820	
218	0	32857	
219	0	32828	
220	0	32836	
221	0	32912	
222	0	32840	
223	0	32860	
224	0	32841	
225	0	32864	
226	0	32820	
227	0	32840	
228	0	32904	
229	0	32916	
230	0	32788	
231	0	32760	
232	0	32790	
233	0	32800	
234	0	32816	
235	0	32852	
236	0	32800	
237	0	32824	
238	0	32864	
239	0	32832	
240	0	32892	
241	0	32896	
242	0	32800	
243	0	32832	
244	0	32890	
245	0	32868	
246	0	32800	
247	0	32796	
248	0	32828	
249	0	32756	
250	0	32852	
251	0	32720	
252	0	32780	
253	0	32756	
254	0	32837	
255	0	32856	
256	0	32853	
257	0	32828	
258	0	32844	
259	0	32888	
260	0	32844	
261	0	32824	
262	0	32856	
263	0	32828	
264	0	32808	
265	0	32874	
266	0	32880	
267	0	32800	
268	0	32824	
269	0	32792	
270	0	32752	
271	0	32752	
272	0	32792	
273	0	32808	
274	0	32788	
275	0	32796	
276	0	32856	
277	0	32808	
278	0	32852	
279	0	32824	
280	0	32876	
281	0	32904	
282	0	32848	
283	0	32792	
284	0	32768	
285	0	32796	
286	0	32836	
287	0	32805	
288	0	32804	
289	0	32788	
290	0	32800	
291	0	32844	
292	0	32812	
293	0	32788	
294	0	32800	
295	0	32848	
296	0	32840	
297	0	32768	
298	0	32836	
299	0	32821	
300	0	32908	
301	0	32814	
302	0	32884	
303	0	32792	
304	0	32808	
305	0	32856	
306	0	32848	
307	0	32832	
308	0	32852	
309	0	32820	
310	0	32888	
311	0	32800	
312	0	32780	
313	0	32800	
314	0	32860	
315	0	32880	
316	0	32808	
317	0	32848	
318	0	32840	
319	0	32920	
320	0	32888	
321	0	32796	
322	0	32844	
323	0	32924	
324	0	32832	
325	0	32808	
326	0	32774	
327	0	32800	
328	0	32852	
329	0	32778	
330	0	32741	
331	0	32748	
332	0	32800	
333	0	32768	
334	0	32872	
335	0	32796	
336	0	32812	
337	0	32812	
338	0	32864	
339	0	32868	
340	0	32864	
341	0	32856	
342	0	32804	
343	0	32928	
344	0	32872	
345	0	32824	
346	0	32840	
347	0	32808	
348	0	32824	
349	0	32808	
350	0	32816	
351	0	32828	
352	0	32752	
353	0	32740	
354	0	32816	
355	0	32804	
356	0	32760	
357	0	32824	
358	0	32832	
359	0	32892	
360	0	32808	
361	0	32816	
362	0	32860	
363	0	32889	
364	0	32808	
365	0	32852	
366	0	32788	
367	0	32820	
368	0	32808	
369	0	32792	
370	0	32728	
371	0	32832	
372	0	32884	
373	0	32772	
374	0	32820	
375	0	32804	
376	0	32812	
377	0	32844	
378	0	32832	
379	0	32872	
380	0	32821	
381	0	32874	
382	0	32764	
383	0	32840	
384	0	32864	
385	0	32844	
386	0	32836	
387	0	32854	
388	0	32792	
389	0	32758	
390	0	32816	
391	0	32794	
392	0	32780	
393	0	32810	
394	0	32860	
395	0	32848	
396	0	32776	
397	0	32828	
398	0	32824	
399	0	32800	
400	0	32862	
401	0	32872	
402	0	32888	
403	0	32820	
404	0	32800	
405	0	32916	
406	0	32844	
407	0	32778	
408	0	32812	
409	0	32792	
410	0	32768	
411	0	32816	
412	0	32872	
413	0	32808	
414	0	32716	
415	0	32852	
416	0	32828	
417	0	32864	
418	0	32816	
419	0	32796	
420	0	32880	
421	0	32868	
422	0	32816	
423	0	32876	
424	0	32828	
425	0	32872	
426	0	32816	
427	0	32756	
428	0	32788	
429	0	32832	
430	0	32824	
431	0	32836	
432	0	32824	
433	0	32832	
434	0	32824	
435	0	32772	
436	0	32792	
437	0	32740	
438	0	32892	
439	0	32884	
440	0	32852	
441	0	32908	
442	0	32848	
443	0	32780	
444	0	32856	
445	0	32844	
446	0	32744	
447	0	32808	
448	0	32832	
449	0	32852	
450	0	32816	
451	0	32812	
452	0	32780	
453	0	32800	
454	0	32852	
455	0	32820	
456	0	32852	
457	0	32764	
458	0	32820	
459	0	32884	
460	0	32868	
461	0	32888	
462	0	32808	
463	0	32872	
464	0	32808	
465	0	32884	
466	0	32860	
467	0	32824	
468	0	32792	
469	0	32780	
470	0	32828	
471	0	32880	
472	0	32804	
473	0	32784	
474	0	32780	
475	0	32788	
476	0	32800	
477	0	32824	
478	0	32848	
479	0	32836	
480	0	32876	
481	0	32844	
482	0	32860	
483	0	32812	
484	0	32824	
485	0	32846	
486	0	32852	
487	0	32860	
488	0	32752	
489	0	32836	
490	0	32824	
491	0	32796	
492	0	32768	
493	0	32808	
494	0	32764	
495	0	32828	
496	0	32856	
497	0	32788	
498	0	32916	
499	0	32828	
500	0	32816	
501	0	32808	
502	0	32816	
503	0	32868	
504	0	32892	
505	0	32792	
506	0	32808	
507	0	32800	
508	0	32784	
509	0	32788	
510	0	32808	
511	0	32720	
512	0	32816	
513	0	32820	
514	0	32840	
515	0	32824	
516	0	32860	
517	0	32930	
518	0	32820	
519	0	32800	
520	0	32936	
521	0	32896	
522	0	32836	
523	0	32848	
524	0	32876	
525	0	32812	
526	0	32860	
527	0	32784	
528	0	32824	
529	0	32748	
530	0	32788	
531	0	32820	
532	0	32816	
533	0	32808	
534	0	32856	
535	0	32812	
536	0	32752	
537	0	32916	
538	0	32836	
539	0	32864	
540	0	32860	
541	0	32876	
542	0	32868	
543	0	32804	
544	0	32924	
545	0	32784	
546	0	32836	
547	0	32784	
548	0	32856	
549	0	32768	
550	0	32696	
551	0	32768	
552	0	32708	
553	0	32820	
554	0	32822	
555	0	32808	
556	0	32864	
557	0	32881	
558	0	32852	
559	0	32836	
560	0	32872	
561	0	32792	
562	0	32824	
563	0	32856	
564	0	32822	
565	0	32852	
566	0	32812	
567	0	32864	
568	0	32774	
569	0	32744	
570	0	32848	
571	0	32788	
572	0	32772	
573	0	32808	
574	0	32824	
575	0	32780	
576	0	32816	
577	0	32860	
578	0	32868	
579	0	32828	
580	0	32848	
581	0	32852	
582	0	32884	
583	0	32828	
584	0	32896	
585	0	32900	
586	0	32748	
587	0	32808	
588	0	32816	
589	0	32744	
590	0	32816	
591	0	32800	
592	0	32864	
593	0	32780	
594	0	32796	
595	0	32852	
596	0	32792	
597	0	32788	
598	0	32840	
599	0	32880	
600	0	32902	
601	0	32809	
602	0	32784	
603	0	32828	
604	0	32864	
605	0	32824	
606	0	32808	
607	0	32816	
608	0	32768	
609	0	32814	
610	0	32836	
611	0	32816	
612	0	32768	
613	0	32768	
614	0	32825	
615	0	32844	
616	0	32850	
617	0	32868	
618	0	32844	
619	0	32828	
620	0	32828	
621	0	32820	
622	0	32788	
623	0	32832	
624	0	32856	
625	0	32840	
626	0	32800	
627	0	32768	
628	0	32781	
629	0	32784	
630	0	32790	
631	0	32838	
632	0	32836	
633	0	32828	
634	0	32800	
635	0	32796	
636	0	32884	
637	0	32834	
638	0	32856	
639	0	32800	
640	0	32836	
641	0	32836	
642	0	32863	
643	0	32886	
644	0	32872	
645	0	32856	
646	0	32840	
647	0	32776	
648	0	32824	
649	0	32824	
650	0	32852	
651	0	32776	
652	0	32792	
653	0	32836	
654	0	32840	
655	0	32824	
656	0	32836	
657	0	32808	
658	0	32860	
659	0	32780	
660	0	32892	
661	0	32820	
662	0	32860	
663	0	32928	
664	0	32892	
665	0	32840	
666	0	32784	
667	0	32832	
668	0	32832	
669	0	32808	
670	0	32789	
671	0	32816	
672	0	32764	
673	0	32840	
674	0	32852	
675	0	32844	
676	0	32848	
677	0	32784	
678	0	32840	
679	0	32828	
680	0	32844	
681	0	32856	
682	0	32781	
683	0	32789	
684	0	32840	
685	0	32808	
686	0	32808	
687	0	32829	
688	0	32796	
689	0	32800	
690	0	32840	
691	0	32762	
692	0	32772	
693	0	32764	
694	0	32816	
695	0	32832	
696	0	32849	
697	0	32832	
698	0	32824	
699	0	32896	
700	0	32844	
701	0	32840	
702	0	32864	
703	0	32904	
704	0	32824	
705	0	32860	
706	0	32812	
707	0	32772	
708	0	32796	
709	0	32858	
710	0	32766	
711	0	32796	
712	0	32788	
713	0	32892	
714	0	32820	
715	0	32880	
716	0	32800	
717	0	32868	
718	0	32829	
719	0	32836	
720	0	32860	
721	0	32836	
722	0	32824	
723	0	32820	
724	0	32844	
725	0	32852	
726	0	32788	
727	0	32780	
728	0	32844	
729	0	32808	
730	0	32784	
731	0	32796	
732	0	32780	
733	0	32775	
734	0	32828	
735	0	32832	
736	0	32824	
737	0	32836	
738	0	32876	
739	0	32800	
740	0	32836	
741	0	32840	
742	0	32828	
743	0	32908	
744	0	32880	
745	0	32784	
746	0	32828	
747	0	32824	
748	0	32816	
749	0	32792	
750	0	32808	
751	0	32760	
752	0	32792	
753	0	32836	
754	0	32804	
755	0	32869	
756	0	32760	
757	0	32836	
758	0	32792	
759	0	32884	
760	0	32876	
761	0	32800	
762	0	32860	
763	0	32932	
764	0	32848	
765	0	32796	
766	0	32836	
767	0	32832	
768	0	32820	
769	0	32821	
770	0	32852	
771	0	32840	
772	0	32888	
773	0	32812	
774	0	32748	
775	0	32852	
776	0	32796	
777	0	32812	
778	0	32836	
779	0	32884	
780	0	32864	
781	0	32820	
782	0	32828	
783	0	32840	
784	0	32832	
785	0	32852	
786	0	32792	
787	0	32840	
788	0	32804	
789	0	32744	
790	0	32808	
791	0	32760	
792	0	32860	
793	0	32832	
794	0	32756	
795	0	32764	
796	0	32864	
797	0	32830	
798	0	32864	
799	0	32788	
800	0	32820	
801	0	32914	
802	0	32844	
803	0	32832	
804	0	32802	
805	0	32832	
806	0	32804	
807	0	32812	
808	0	32852	
809	0	32852	
810	0	32800	
811	0	32816	
812	0	32852	
813	0	32748	
814	0	32792	
815	0	32876	
816	0	32930	
817	0	32828	
818	0	32828	
819	0	32876	
820	0	32840	
821	0	32788	
822	0	32844	
823	0	32796	
824	0	32873	
825	0	32804	
826	0	32812	
827	0	32796	
828	0	32744	
829	0	32812	
830	0	32760	
831	0	32776	
832	0	32796	
833	0	32872	
834	0	32781	
835	0	32848	
836	0	32826	
837	0	32888	
838	0	32836	
839	0	32882	
840	0	32860	
841	0	32760	
842	0	32872	
843	0	32852	
844	0	32864	
845	0	32766	
846	0	32828	
847	0	32772	
848	0	32844	
849	0	32768	
850	0	32816	
851	0	32780	
852	0	32772	
853	0	32820	
854	0	32800	
855	0	32776	
856	0	32856	
857	0	32828	
858	0	32784	
859	0	32844	
860	0	32828	
861	0	32900	
862	0	32872	
863	0	32814	
864	0	32852	
865	0	32812	
866	0	32884	
867	0	32772	
868	0	32856	
869	0	32828	
870	0	32824	
871	0	32788	
872	0	32796	
873	0	32784	
874	0	32836	
875	0	32840	
876	0	32872	
877	0	32828	
878	0	32816	
879	0	32900	
880	0	32768	
881	0	32892	
882	0	32881	
883	0	32858	
884	0	32828	
885	0	32792	
886	0	32826	
887	0	32864	
888	0	32775	
889	0	32828	
890	0	32858	
891	0	32804	
892	0	32852	
893	0	32816	
894	0	32720	
895	0	32832	
896	0	32785	
897	0	32810	
898	0	32832	
899	0	32876	
900	0	32820	
901	0	32800	
902	0	32848	
903	0	32780	
904	0	32828	
905	0	32848	
906	0	32780	
907	0	32848	
908	0	32840	
909	0	32860	
910	0	32824	
911	0	32784	
912	0	32776	
913	0	32762	
914	0	32824	
915	0	32808	
916	0	32860	
917	0	32816	
918	0	32836	
919	0	32856	
920	0	32876	
921	0	32904	
922	0	32852	
923	0	32856	
924	0	32860	
925	0	32832	
926	0	32808	
927	0	32728	
928	0	32804	
929	0	32836	
930	0	32804	
931	0	32844	
932	0	32816	
933	0	32820	
934	0	32856	
935	0	32840	
936	0	32769	
937	0	32856	
938	0	32784	
939	0	32824	
940	0	32872	
941	0	32856	
942	0	32854	
943	0	32868	
944	0	32764	
945	0	32884	
946	0	32832	
947	0	32828	
948	0	32800	
949	0	32820	
950	0	32808	
951	0	32784	
952	0	32866	
953	0	32828	
954	0	32768	
955	0	32865	
956	0	32858	
957	0	32796	
958	0	32836	
959	0	32824	
960	0	32824	
961	0	32840	
962	0	32850	
963	0	32872	
964	0	32888	
965	0	32832	
966	0	32774	
967	0	32796	
968	0	32784	
969	0	32788	
970	0	32792	
971	0	32764	
972	0	32792	
973	0	32828	
974	0	32784	
975	0	32856	
976	0	32836	
977	0	32848	
978	0	32824	
979	0	32838	
980	0	32880	
981	0	32856	
982	0	32832	
983	0	32836	
984	0	32816	
985	0	32872	
986	0	32876	
987	0	32800	
988	0	32776	
989	0	32752	
990	0	32821	
991	0	32832	
992	0	32748	
993	0	32774	
994	0	32848	
995	0	32792	
996	0	32768	
997	0	32777	
998	0	32852	
999	0	32889	
1000	0	32860	
1001	0	32820	
1002	0	32932	
1003	0	32868	
1004	0	32852	
1005	0	32804	
1006	0	32872	
1007	0	32768	
1008	0	32785	
1009	0	32788	
1010	0	32800	
1011	0	32760	
1012	0	32748	
1013	0	32840	
1014	0	32796	
1015	0	32844	
1016	0	32826	
1017	0	32796	
1018	0	32852	
1019	0	32836	
1020	0	32840	
1021	0	32880	
1022	0	32808	
1023	0	32820	
1024	0	32868	
1025	0	32808	
1026	0	32800	
1027	0	32784	
1028	0	32828	
1029	0	32812	
1030	0	32800	
1031	0	32700	
1032	0	32744	
1033	0	32768	
1034	0	32822	
1035	0	32804	
1036	0	32776	
1037	0	32804	
1038	0	32908	
1039	0	32882	
1040	0	32880	
1041	0	32784	
1042	0	32800	
1043	0	32848	
1044	0	32892	
1045	0	32824	
1046	0	32826	
1047	0	32804	
1048	0	32828	
1049	0	32793	
1050	0	32776	
1051	0	32776	
1052	0	32836	
1053	0	32808	
1054	0	32804	
1055	0	32821	
1056	0	32876	
1057	0	32840	
1058	0	32858	
1059	0	32872	
1060	0	32852	
1061	0	32868	
1062	0	32832	
1063	0	32752	
1064	0	32840	
1065	0	32792	
1066	0	32804	
1067	0	32792	
1068	0	32836	
1069	0	32776	
1070	0	32832	
1071	0	32856	
1072	0	32838	
1073	0	32754	
1074	0	32816	
1075	0	32852	
1076	0	32820	
1077	0	32776	
1078	0	32900	
1079	0	32836	
1080	0	32848	
1081	0	32900	
1082	0	32828	
1083	0	32828	
1084	0	32860	
1085	0	32860	
1086	0	32804	
1087	0	32768	
1088	0	32788	
1089	0	32792	
1090	0	32768	
1091	0	32800	
1092	0	32800	
1093	0	32832	
1094	0	32836	
1095	0	32872	
1096	0	32848	
1097	0	32864	
1098	0	32860	
1099	0	32860	
1100	0	32788	
1101	0	32840	
1102	0	32864	
1103	0	32868	
1104	0	32848	
1105	0	32848	
1106	0	32772	
1107	0	32828	
1108	0	32788	
1109	0	32852	
1110	0	32876	
1111	0	32800	
1112	0	32772	
1113	0	32812	
1114	0	32788	
1115	0	32846	
1116	0	32892	
1117	0	32892	
1118	0	32776	
1119	0	32824	
1120	0	32832	
1121	0	32884	
1122	0	32812	
1123	0	32844	
1124	0	32804	
1125	0	32852	
1126	0	32837	
1127	0	32834	
1128	0	32848	
1129	0	32768	
1130	0	32852	
1131	0	32792	
1132	0	32820	
1133	0	32830	
1134	0	32740	
1135	0	32814	
1136	0	32816	
1137	0	32904	
1138	0	32840	
1139	0	32852	
1140	0	32780	
1141	0	32848	
1142	0	32780	
1143	0	32816	
1144	0	32884	
1145	0	32876	
1146	0	32856	
1147	0	32808	
1148	0	32780	
1149	0	32804	
1150	0	32764	
1151	0	32868	
1152	0	32801	
1153	0	32840	
1154	0	32776	
1155	0	32824	
1156	0	32868	
1157	0	32884	
1158	0	32804	
1159	0	32782	
1160	0	32844	
1161	0	32848	
1162	0	32824	
1163	0	32800	
1164	0	32868	
1165	0	32856	
1166	0	32876	
1167	0	32776	
1168	0	32824	
1169	0	32774	
1170	0	32780	
1171	0	32788	
1172	0	32832	
1173	0	32804	
1174	0	32824	
1175	0	32860	
1176	0	32836	
1177	0	32864	
1178	0	32860	
1179	0	32785	
1180	0	32864	
1181	0	32864	
1182	0	32908	
1183	0	32826	
1184	0	32844	
1185	0	32836	
1186	0	32828	
1187	0	32816	
1188	0	32744	
1189	0	32756	
1190	0	32792	
1191	0	32800	
1192	0	32749	
1193	0	32780	
1194	0	32728	
1195	0	32856	
1196	0	32804	
1197	0	32870	
1198	0	32868	
1199	0	32856	
1200	0	32840	
1201	0	32824	
1202	0	32858	
1203	0	32836	
1204	0	32810	
1205	0	32780	
1206	0	32812	
1207	0	32780	
1208	0	32784	
1209	0	32828	
1210	0	32884	
1211	0	32868	
1212	0	32840	
1213	0	32792	
1214	0	32796	
1215	0	32826	
1216	0	32776	
1217	0	32856	
1218	0	32892	
1219	0	32796	
1220	0	32836	
1221	0	32834	
1222	0	32864	
1223	0	32828	
1224	0	32884	
1225	0	32820	
1226	0	32820	
1227	0	32800	
1228	0	32824	
1229	0	32784	
1230	0	32716	
1231	0	32780	
1232	0	32808	
1233	0	32876	
1234	0	32800	
1235	0	32808	
1236	0	32852	
1237	0	32856	
1238	0	32800	
1239	0	32900	
1240	0	32896	
1241	0	32832	
1242	0	32876	
1243	0	32868	
1244	0	32815	
1245	0	32820	
1246	0	32808	
1247	0	32816	
1248	0	32756	
1249	0	32800	
1250	0	32794	
1251	0	32820	
1252	0	32780	
1253	0	32792	
1254	0	32788	
1255	0	32848	
1256	0	32908	
1257	0	32896	
1258	0	32812	
1259	0	32852	
1260	0	32856	
1261	0	32888	
1262	0	32808	
1263	0	32868	
1264	0	32818	
1265	0	32834	
1266	0	32816	
1267	0	32808	
1268	0	32824	
1269	0	32708	
1270	0	32816	
1271	0	32808	
1272	0	32844	
1273	0	32844	
1274	0	32804	
1275	0	32736	
1276	0	32808	
1277	0	32840	
1278	0	32858	
1279	0	32836	
1280	0	32864	
1281	0	32940	
1282	0	32868	
1283	0	32812	
1284	0	32804	
1285	0	32816	
1286	0	32848	
1287	0	32864	
1288	0	32800	
1289	0	32832	
1290	0	32845	
1291	0	32816	
1292	0	32769	
1293	0	32812	
1294	0	32832	
1295	0	32836	
1296	0	32813	
1297	0	32800	
1298	0	32792	
1299	0	32880	
1300	0	32861	
1301	0	32844	
1302	0	32816	
1303	0	32852	
1304	0	32848	
1305	0	32832	
1306	0	32840	
1307	0	32812	
1308	0	32756	
1309	0	32816	
1310	0	32772	
1311	0	32864	
1312	0	32844	
1313	0	32788	
1314	0	32780	
1315	0	32868	
1316	0	32848	
1317	0	32826	
1318	0	32928	
1319	0	32840	
1320	0	32824	
1321	0	32892	
1322	0	32841	
1323	0	32788	
1324	0	32868	
1325	0	32840	
1326	0	32820	
1327	0	32784	
1328	0	32820	
1329	0	32752	
1330	0	32760	
1331	0	32780	
1332	0	32856	
1333	0	32768	
1334	0	32796	
1335	0	32836	
1336	0	32844	
1337	0	32800	
1338	0	32872	
1339	0	32888	
1340	0	32834	
1341	0	32856	
1342	0	32904	
1343	0	32832	
1344	0	32772	
1345	0	32784	
1346	0	32832	
1347	0	32782	
1348	0	32734	
1349	0	32892	
1350	0	32760	
1351	0	32776	
1352	0	32784	
1353	0	32812	
1354	0	32852	
1355	0	32868	
1356	0	32800	
1357	0	32780	
1358	0	32912	
1359	0	32836	
1360	0	32896	
1361	0	32864	
1362	0	32884	
1363	0	32864	
1364	0	32812	
1365	0	32848	
1366	0	32841	
1367	0	32832	
1368	0	32848	
1369	0	32788	
1370	0	32796	
1371	0	32836	
1372	0	32804	
1373	0	32812	
1374	0	32816	
1375	0	32792	
1376	0	32816	
1377	0	32820	
1378	0	32840	
1379	0	32864	
1380	0	32908	
1381	0	32852	
1382	0	32860	
1383	0	32832	
1384	0	32808	
1385	0	32816	
1386	0	32808	
1387	0	32828	
1388	0	32796	
1389	0	32796	
1390	0	32804	
1391	0	32776	
1392	0	32832	
1393	0	32752	
1394	0	32836	
1395	0	32808	
1396	0	32808	
1397	0	32882	
1398	0	32868	
1399	0	32840	
1400	0	32788	
1401	0	32880	
1402	0	32908	
1403	0	32868	
1404	0	32864	
1405	0	32772	
1406	0	32782	
1407	0	32864	
1408	0	32772	
1409	0	32848	
1410	0	32808	
1411	0	32792	
1412	0	32812	
1413	0	32856	
1414	0	32868	
1415	0	32780	
1416	0	32832	
1417	0	32852	
1418	0	32848	
1419	0	32832	
1420	0	32816	
1421	0	32840	
1422	0	32876	
1423	0	32920	
1424	0	32768	
1425	0	32780	
1426	0	32856	
1427	0	32856	
1428	0	32796	
1429	0	32808	
1430	0	32810	
1431	0	32784	
1432	0	32801	
1433	0	32848	
1434	0	32824	
1435	0	32804	
1436	0	32848	
1437	0	32846	
1438	0	32784	
1439	0	32816	
1440	0	32868	
1441	0	32914	
1442	0	32872	
1443	0	32812	
1444	0	32820	
1445	0	32808	
1446	0	32812	
1447	0	32832	
1448	0	32758	
1449	0	32852	
1450	0	32796	
1451	0	32764	
1452	0	32756	
1453	0	32866	
1454	0	32820	
1455	0	32878	
1456	0	32816	
1457	0	32828	
1458	0	32876	
1459	0	32808	
1460	0	32808	
1461	0	32896	
1462	0	32828	
1463	0	32824	
1464	0	32852	
1465	0	32896	
1466	0	32856	
1467	0	32748	
1468	0	32838	
1469	0	32782	
1470	0	32792	
1471	0	32836	
1472	0	32817	
1473	0	32820	
1474	0	32828	
1475	0	32828	
1476	0	32840	
1477	0	32788	
1478	0	32866	
1479	0	32824	
1480	0	32848	
1481	0	32796	
1482	0	32808	
1483	0	32828	
1484	0	32840	
1485	0	32896	
1486	0	32876	
1487	0	32792	
1488	0	32804	
1489	0	32808	
1490	0	32740	
1491	0	32796	
1492	0	32816	
1493	0	32808	
1494	0	32792	
1495	0	32860	
1496	0	32836	
1497	0	32812	
1498	0	32848	
1499	0	32822	
1500	0	32866	
1501	0	32792	
1502	0	32820	
1503	0	32780	
1504	0	32848	
1505	0	32852	
1506	0	32788	
1507	0	32804	
1508	0	32832	
1509	0	32824	
1510	0	32812	
1511	0	32808	
1512	0	32788	
1513	0	32824	
1514	0	32768	
1515	0	32832	
1516	0	32852	
1517	0	32805	
1518	0	32840	
1519	0	32852	
1520	0	32892	
1521	0	32896	
1522	0	32848	
1523	0	32848	
1524	0	32832	
1525	0	32848	
1526	0	32804	
1527	0	32812	
1528	0	32784	
1529	0	32776	
1530	0	32816	
1531	0	32808	
1532	0	32776	
1533	0	32860	
1534	0	32864	
1535	0	32836	
1536	0	32884	
1537	0	32800	
1538	0	32852	
1539	0	32884	
1540	0	32828	
1541	0	32808	
1542	0	32862	
1543	0	32860	
1544	0	32796	
1545	0	32836	
1546	0	32754	
1547	0	32776	
1548	0	32800	
1549	0	32836	
1550	0	32828	
1551	0	32760	
1552	0	32788	
1553	0	32877	
1554	0	32788	
1555	0	32796	
1556	0	32812	
1557	0	32832	
1558	0	32816	
1559	0	32845	
1560	0	32792	
1561	0	32836	
1562	0	32916	
1563	0	32844	
1564	0	32844	
1565	0	32808	
1566	0	32784	
1567	0	32812	
1568	0	32796	
1569	0	32800	
1570	0	32804	
1571	0	32852	
1572	0	32800	
1573	0	32816	
1574	0	32884	
1575	0	32776	
1576	0	32848	
1577	0	32844	
1578	0	32820	
1579	0	32833	
1580	0	32828	
1581	0	32828	
1582	0	32864	
1583	0	32828	
1584	0	32860	
1585	0	32800	
1586	0	32808	
1587	0	32824	
1588	0	32820	
1589	0	32828	
1590	0	32828	
1591	0	32896	
1592	0	32832	
1593	0	32852	
1594	0	32804	
1595	0	32816	
1596	0	32848	
1597	0	32804	
1598	0	32876	
1599	0	32844	
1600	0	32884	
1601	0	32860	
1602	0	32876	
1603	0	32800	
1604	0	32812	
1605	0	32848	
1606	0	32836	
1607	0	32816	
1608	0	32816	
1609	0	32816	
1610	0	32820	
1611	0	32796	
1612	0	32768	
1613	0	32872	
1614	0	32796	
1615	0	32848	
1616	0	32876	
1617	0	32864	
1618	0	32804	
1619	0	32800	
1620	0	32896	
1621	0	32792	
1622	0	32876	
1623	0	32848	
1624	0	32760	
1625	0	32804	
1626	0	32800	
1627	0	32860	
1628	0	32776	
1629	0	32774	
1630	0	32824	
1631	0	32781	
1632	0	32840	
1633	0	32784	
1634	0	32824	
1635	0	32800	
1636	0	32844	
1637	0	32862	
1638	0	32872	
1639	0	32844	
1640	0	32844	
1641	0	32852	
1642	0	32816	
1643	0	32792	
1644	0	32864	
1645	0	32840	
1646	0	32768	
1647	0	32836	
1648	0	32864	
1649	0	32760	
1650	0	32864	
1651	0	32764	
1652	0	32812	
1653	0	32804	
1654	0	32820	
1655	0	32804	
1656	0	32832	
1657	0	32820	
1658	0	32860	
1659	0	32876	
1660	0	32822	
1661	0	32900	
1662	0	32832	
1663	0	32872	
1664	0	32816	
1665	0	32796	
1666	0	32856	
1667	0	32796	
1668	0	32831	
1669	0	32756	
1670	0	32848	
1671	0	32856	
1672	0	32844	
1673	0	32792	
1674	0	32804	
1675	0	32832	
1676	0	32836	
1677	0	32862	
1678	0	32848	
1679	0	32848	
1680	0	32856	
1681	0	32880	
1682	0	32784	
1683	0	32804	
1684	0	32784	
1685	0	32816	
1686	0	32768	
1687	0	32780	
1688	0	32848	
1689	0	32752	
1690	0	32804	
1691	0	32792	
1692	0	32742	
1693	0	32812	
1694	0	32832	
1695	0	32852	
1696	0	32796	
1697	0	32828	
1698	0	32896	
1699	0	32860	
1700	0	32908	
1701	0	32896	
1702	0	32864	
1703	0	32804	
1704	0	32872	
1705	0	32844	
1706	0	32812	
1707	0	32800	
1708	0	32870	
1709	0	32798	
1710	0	32748	
1711	0	32844	
1712	0	32832	
1713	0	32820	
1714	0	32868	
1715	0	32776	
1716	0	32836	
1717	0	32876	
1718	0	32860	
1719	0	32856	
1720	0	32836	
1721	0	32889	
1722	0	32896	
1723	0	32848	
1724	0	32856	
1725	0	32800	
1726	0	32808	
1727	0	32764	
1728	0	32760	
1729	0	32824	
1730	0	32832	
1731	0	32804	
1732	0	32788	
1733	0	32836	
1734	0	32840	
1735	0	32872	
1736	0	32876	
1737	0	32798	
1738	0	32828	
1739	0	32876	
1740	0	32836	
1741	0	32820	
1742	0	32836	
1743	0	32876	
1744	0	32840	
1745	0	32824	
1746	0	32832	
1747	0	32804	
1748	0	32814	
1749	0	32820	
1750	0	32756	
1751	0	32848	
1752	0	32824	
1753	0	32828	
1754	0	32780	
1755	0	32828	
1756	0	32888	
1757	0	32808	
1758	0	32832	
1759	0	32888	
1760	0	32892	
1761	0	32824	
1762	0	32784	
1763	0	32816	
1764	0	32860	
1765	0	32861	
1766	0	32868	
1767	0	32808	
1768	0	32780	
1769	0	32776	
1770	0	32772	
1771	0	32804	
1772	0	32848	
1773	0	32808	
1774	0	32776	
1775	0	32852	
1776	0	32840	
1777	0	32876	
1778	0	32872	
1779	0	32860	
1780	0	32900	
1781	0	32832	
1782	0	32824	
1783	0	32808	
1784	0	32844	
1785	0	32836	
1786	0	32884	
1787	0	32836	
1788	0	32756	
1789	0	32820	
1790	0	32736	
1791	0	32824	
1792	0	32820	
1793	0	32852	
1794	0	32856	
1795	0	32820	
1796	0	32788	
1797	0	32808	
1798	0	32808	
1799	0	32828	
1800	0	32840	
1801	0	32784	
1802	0	32748	
1803	0	32880	
1804	0	32792	
1805	0	32840	
1806	0	32800	
1807	0	32796	
1808	0	32792	
1809	0	32792	
1810	0	32800	
1811	0	32774	
1812	0	32820	
1813	0	32788	
1814	0	32824	
1815	0	32812	
1816	0	32828	
1817	0	32788	
1818	0	32880	
1819	0	32910	
1820	0	32856	
1821	0	32832	
1822	0	32840	
1823	0	32816	
1824	0	32816	
1825	0	32872	
1826	0	32808	
1827	0	32816	
1828	0	32796	
1829	0	32772	
1830	0	32768	
1831	0	32756	
1832	0	32864	
1833	0	32772	
1834	0	32813	
1835	0	32836	
1836	0	32864	
1837	0	32856	
1838	0	32884	
1839	0	32848	
1840	0	32880	
1841	0	32844	
1842	0	32840	
1843	0	32852	
1844	0	32892	
1845	0	32852	
1846	0	32816	
1847	0	32808	
1848	0	32836	
1849	0	32832	
1850	0	32832	
1851	0	32800	
1852	0	32812	
1853	0	32744	
1854	0	32760	
1855	0	32824	
1856	0	32860	
1857	0	32856	
1858	0	32888	
1859	0	32865	
1860	0	32844	
1861	0	32880	
1862	0	32868	
1863	0	32804	
1864	0	32864	
1865	0	32788	
1866	0	32852	
1867	0	32800	
1868	0	32832	
1869	0	32836	
1870	0	32804	
1871	0	32796	
1872	0	32792	
1873	0	32780	
1874	0	32832	
1875	0	32852	
1876	0	32816	
1877	0	32852	
1878	0	32876	
1879	0	32852	
1880	0	32812	
1881	0	32820	
1882	0	32864	
1883	0	32764	
1884	0	32780	
1885	0	32780	
1886	0	32776	
1887	0	32816	
1888	0	32836	
1889	0	32788	
1890	0	32820	
1891	0	32848	
1892	0	32816	
1893	0	32820	
1894	0	32784	
1895	0	32872	
1896	0	32838	
1897	0	32800	
1898	0	32820	
1899	0	32848	
1900	0	32880	
1901	0	32856	
1902	0	32852	
1903	0	32858	
1904	0	32848	
1905	0	32824	
1906	0	32788	
1907	0	32824	
1908	0	32768	
1909	0	32796	
1910	0	32788	
1911	0	32836	
1912	0	32820	
1913	0	32820	
1914	0	32856	
1915	0	32848	
1916	0	32820	
1917	0	32864	
1918	0	32845	
1919	0	32872	
1920	0	32848	
1921	0	32812	
1922	0	32888	
1923	0	32788	
1924	0	32860	
1925	0	32844	
1926	0	32804	
1927	0	32816	
1928	0	32848	
1929	0	32792	
1930	0	32788	
1931	0	32764	
1932	0	32804	
1933	0	32792	
1934	0	32836	
1935	0	32860	
1936	0	32860	
1937	0	32874	
1938	0	32842	
1939	0	32896	
1940	0	32876	
1941	0	32828	
1942	0	32756	
1943	0	32836	
1944	0	32816	
1945	0	32892	
1946	0	32804	
1947	0	32820	
1948	0	32832	
1949	0	32820	
1950	0	32800	
1951	0	32808	
1952	0	32880	
1953	0	32828	
1954	0	32888	
1955	0	32856	
1956	0	32852	
1957	0	32768	
1958	0	32828	
1959	0	32852	
1960	0	32888	
1961	0	32808	
1962	0	32836	
1963	0	32848	
1964	0	32844	
1965	0	32792	
1966	0	32792	
1967	0	32836	
1968	0	32824	
1969	0	32788	
1970	0	32820	
1971	0	32848	
1972	0	32812	
1973	0	32832	
1974	0	32840	
1975	0	32836	
1976	0	32872	
1977	0	32844	
1978	0	32852	
1979	0	32762	
1980	0	32836	
1981	0	32860	
1982	0	32840	
1983	0	32804	
1984	0	32833	
1985	0	32796	
1986	0	32832	
1987	0	32816	
1988	0	32804	
1989	0	32796	
1990	0	32800	
1991	0	32808	
1992	0	32800	
1993	0	32840	
1994	0	32824	
1995	0	32840	
1996	0	32768	
1997	0	32836	
1998	0	32884	
1999	0	32828	
2000	0	32828	
2001	0	32873	
2002	0	32792	
2003	0	32892	
2004	0	32764	
2005	0	32820	
2006	0	32848	
2007	0	32784	
2008	0	32808	
2009	0	32868	
2010	0	32816	
2011	0	32796	
2012	0	32756	
2013	0	32864	
2014	0	32848	
2015	0	32812	
2016	0	32804	
2017	0	32775	
2018	0	32848	
2019	0	32820	
2020	0	32846	
2021	0	32832	
2022	0	32848	
2023	0	32804	
2024	0	32832	
2025	0	32852	
2026	0	32774	
2027	0	32824	
2028	0	32788	
2029	0	32828	
2030	0	32828	
2031	0	32798	
2032	0	32788	
2033	0	32804	
2034	0	32796	
2035	0	32804	
2036	0	32858	
2037	0	32852	
2038	0	32860	
2039	0	32868	
2040	0	32816	
2041	0	32888	
2042	0	32801	
2043	0	32828	
2044	0	32816	
2045	0	32852	
2046	0	32868	
2047	0	32796	
2048	0	32780	
2049	0	32792	
2050	0	32864	
2051	0	32796	
2052	0	32832	
2053	0	32732	
2054	0	32812	
2055	0	32808	
2056	0	32828	
2057	0	32864	
2058	0	32840	
2059	0	32864	
2060	0	32848	
2061	0	32840	
2062	0	32916	
2063	0	32804	
2064	0	32824	
2065	0	32764	
2066	0	32796	
2067	0	32852	
2068	0	32828	
2069	0	32824	
2070	0	32772	
2071	0	32824	
2072	0	32804	
2073	0	32768	
2074	0	32792	
2075	0	32880	
2076	0	32840	
2077	0	32820	
2078	0	32841	
2079	0	32874	
2080	0	32896	
2081	0	32804	
2082	0	32852	
2083	0	32820	
2084	0	32828	
2085	0	32820	
2086	0	32784	
2087	0	32798	
2088	0	32808	
2089	0	32792	
2090	0	32816	
2091	0	32840	
2092	0	32816	
2093	0	32800	
2094	0	32856	
2095	0	32772	
2096	0	32860	
2097	0	32800	
2098	0	32900	
2099	0	32940	
2100	0	32812	
2101	0	32864	
2102	0	32852	
2103	0	32856	
2104	0	32836	
2105	0	32780	
2106	0	32840	
2107	0	32820	
2108	0	32768	
2109	0	32788	
2110	0	32848	
2111	0	32776	
2112	0	32832	
2113	0	32800	
2114	0	32816	
2115	0	32844	
2116	0	32818	
2117	0	32826	
2118	0	32856	
2119	0	32940	
2120	0	32868	
2121	0	32840	
2122	0	32844	
2123	0	32888	
2124	0	32760	
2125	0	32724	
2126	0	32760	
2127	0	32824	
2128	0	32772	
2129	0	32836	
2130	0	32772	
2131	0	32840	
2132	0	32824	
2133	0	32780	
2134	0	32844	
2135	0	32864	
2136	0	32836	
2137	0	32848	
2138	0	32940	
2139	0	32808	
2140	0	32912	
2141	0	32880	
2142	0	32820	
2143	0	32776	
2144	0	32836	
2145	0	32768	
2146	0	32768	
2147	0	32764	
2148	0	32820	
2149	0	32808	
2150	0	32836	
2151	0	32844	
2152	0	32792	
2153	0	32808	
2154	0	32844	
2155	0	32832	
2156	0	32826	
2157	0	32852	
2158	0	32844	
2159	0	32796	
2160	0	32872	
2161	0	32884	
2162	0	32900	
2163	0	32852	
2164	0	32804	
2165	0	32772	
2166	0	32840	
2167	0	32772	
2168	0	32848	
2169	0	32840	
2170	0	32836	
2171	0	32804	
2172	0	32768	
2173	0	32840	
2174	0	32948	
2175	0	32820	
2176	0	32788	
2177	0	32856	
2178	0	32924	
2179	0	32864	
2180	0	32816	
2181	0	32832	
2182	0	32860	
2183	0	32760	
2184	0	32804	
2185	0	32748	
2186	0	32828	
2187	0	32832	
2188	0	32824	
2189	0	32826	
2190	0	32752	
2191	0	32836	
2192	0	32852	
2193	0	32832	
2194	0	32812	
2195	0	32820	
2196	0	32782	
2197	0	32880	
2198	0	32856	
2199	0	32852	
2200	0	32868	
2201	0	32874	
2202	0	32832	
2203	0	32889	
2204	0	32824	
2205	0	32772	
2206	0	32804	
2207	0	32792	
2208	0	32786	
2209	0	32800	
2210	0	32800	
2211	0	32753	
2212	0	32852	
2213	0	32792	
2214	0	32780	
2215	0	32820	
2216	0	32844	
2217	0	32832	
2218	0	32892	
2219	0	32880	
2220	0	32782	
2221	0	32860	
2222	0	32900	
2223	0	32836	
2224	0	32775	
2225	0	32864	
2226	0	32824	
2227	0	32816	
2228	0	32824	
2229	0	32788	
2230	0	32900	
2231	0	32820	
2232	0	32752	
2233	0	32832	
2234	0	32872	
2235	0	32860	
2236	0	32812	
2237	0	32816	
2238	0	32852	
2239	0	32904	
2240	0	32838	
2241	0	32792	
2242	0	32781	
2243	0	32892	
2244	0	32832	
2245	0	32864	
2246	0	32828	
2247	0	32768	
2248	0	32788	
2249	0	32772	
2250	0	32780	
2251	0	32816	
2252	0	32792	
2253	0	32868	
2254	0	32832	
2255	0	32808	
2256	0	32864	
2257	0	32856	
2258	0	32836	
2259	0	32836	
2260	0	32872	
2261	0	32828	
2262	0	32848	
2263	0	32824	
2264	0	32872	
2265	0	32792	
2266	0	32860	
2267	0	32816	
2268	0	32808	
2269	0	32792	
2270	0	32808	
2271	0	32752	
2272	0	32844	
2273	0	32800	
2274	0	32824	
2275	0	32828	
2276	0	32856	
2277	0	32872	
2278	0	32836	
2279	0	32848	
2280	0	32860	
2281	0	32804	
2282	0	32896	
2283	0	32856	
2284	0	32844	
2285	0	32792	
2286	0	32808	
2287	0	32820	
2288	0	32800	
2289	0	32792	
2290	0	32780	
2291	0	32816	
2292	0	32804	
2293	0	32772	
2294	0	32820	
2295	0	32813	
2296	0	32868	
2297	0	32850	
2298	0	32868	
2299	0	32820	
2300	0	32848	
2301	0	32860	
2302	0	32836	
2303	0	32888	
2304	0	32756	
2305	0	32808	
2306	0	32780	
2307	0	32784	
2308	0	32776	
2309	0	32824	
2310	0	32800	
2311	0	32836	
2312	0	32726	
2313	0	32896	
2314	0	32832	
2315	0	32816	
2316	0	32904	
2317	0	32820	
2318	0	32916	
2319	0	32876	
2320	0	32864	
2321	0	32884	
2322	0	32860	
2323	0	32826	
2324	0	32804	
2325	0	32804	
2326	0	32868	
2327	0	32780	
2328	0	32768	
2329	0	32784	
2330	0	32908	
2331	0	32796	
2332	0	32892	
2333	0	32860	
2334	0	32796	
2335	0	32794	
2336	0	32828	
2337	0	32828	
2338	0	32836	
2339	0	32800	
2340	0	32853	
2341	0	32820	
2342	0	32828	
2343	0	32808	
2344	0	32772	
2345	0	32840	
2346	0	32896	
2347	0	32900	
2348	0	32836	
2349	0	32808	
2350	0	32784	
2351	0	32820	
2352	0	32810	
2353	0	32844	
2354	0	32796	
2355	0	32848	
2356	0	32808	
2357	0	32836	
2358	0	32868	
2359	0	32848	
2360	0	32868	
2361	0	32896	
2362	0	32786	
2363	0	32768	
2364	0	32776	
2365	0	32848	
2366	0	32780	
2367	0	32860	
2368	0	32772	
2369	0	32784	
2370	0	32892	
2371	0	32900	
2372	0	32832	
2373	0	32792	
2374	0	32804	
2375	0	32840	
2376	0	32812	
2377	0	32864	
2378	0	32924	
2379	0	32880	
2380	0	32888	
2381	0	32892	
2382	0	32860	
2383	0	32800	
2384	0	32832	
2385	0	32750	
2386	0	32820	
2387	0	32792	
2388	0	32820	
2389	0	32808	
2390	0	32848	
2391	0	32780	
2392	0	32836	
2393	0	32756	
2394	0	32800	
2395	0	32864	
2396	0	32896	
2397	0	32820	
2398	0	32896	
2399	0	32776	
2400	0	32844	
2401	0	32880	
2402	0	32784	
2403	0	32860	
2404	0	32812	
2405	0	32834	
2406	0	32858	
2407	0	32804	
2408	0	32800	
2409	0	32784	
2410	0	32816	
2411	0	32832	
2412	0	32824	
2413	0	32892	
2414	0	32892	
2415	0	32788	
2416	0	32888	
2417	0	32844	
2418	0	32832	
2419	0	32804	
2420	0	32804	
2421	0	32816	
2422	0	32826	
2423	0	32756	
2424	0	32828	
2425	0	32804	
2426	0	32800	
2427	0	32784	
2428	0	32804	
2429	0	32824	
2430	0	32804	
2431	0	32808	
2432	0	32848	
2433	0	32820	
2434	0	32852	
2435	0	32856	
2436	0	32944	
2437	0	32804	
2438	0	32884	
2439	0	32868	
2440	0	32868	
2441	0	32872	
2442	0	32848	
2443	0	32748	
2444	0	32774	
2445	0	32748	
2446	0	32840	
2447	0	32832	
2448	0	32796	
2449	0	32777	
2450	0	32788	
2451	0	32776	
2452	0	32860	
2453	0	32848	
2454	0	32828	
2455	0	32841	
2456	0	32796	
2457	0	32844	
2458	0	32834	
2459	0	32864	
2460	0	32820	
2461	0	32856	
2462	0	32848	
2463	0	32852	
2464	0	32852	
2465	0	32786	
2466	0	32810	
2467	0	32812	
2468	0	32800	
2469	0	32832	
2470	0	32884	
2471	0	32768	
2472	0	32812	
2473	0	32808	
2474	0	32844	
2475	0	32908	
2476	0	32792	
2477	0	32820	
2478	0	32806	
2479	0	32848	
2480	0	32848	
2481	0	32816	
2482	0	32832	
2483	0	32852	
2484	0	32880	
2485	0	32820	
2486	0	32808	
2487	0	32844	
2488	0	32744	
2489	0	32764	
2490	0	32788	
2491	0	32804	
2492	0	32840	
2493	0	32816	
2494	0	32780	
2495	0	32848	
2496	0	32885	
2497	0	32782	
2498	0	32840	
2499	0	32804	
2500	0	32832	
2501	0	32772	
2502	0	32844	
2503	0	32876	
2504	0	32840	
2505	0	32788	
2506	0	32848	
2507	0	32876	
2508	0	32828	
2509	0	32764	
2510	0	32816	
2511	0	32720	
2512	0	32764	
2513	0	32824	
2514	0	32812	
2515	0	32768	
2516	0	32824	
2517	0	32860	
2518	0	32892	
2519	0	32836	
2520	0	32852	
2521	0	32892	
2522	0	32856	
2523	0	32824	
2524	0	32812	
2525	0	32828	
2526	0	32860	
2527	0	32760	
2528	0	32744	
2529	0	32804	
2530	0	32760	
2531	0	32832	
2532	0	32764	
2533	0	32812	
2534	0	32914	
2535	0	32816	
2536	0	32794	
2537	0	32788	
2538	0	32872	
2539	0	32880	
2540	0	32856	
2541	0	32836	
2542	0	32760	
2543	0	32856	
2544	0	32872	
2545	0	32860	
2546	0	32812	
2547	0	32808	
2548	0	32826	
2549	0	32772	
2550	0	32808	
2551	0	32760	
2552	0	32868	
2553	0	32828	
2554	0	32764	
2555	0	32852	
2556	0	32808	
2557	0	32816	
2558	0	32844	
2559	0	32832	
2560	0	32812	
2561	0	32904	
2562	0	32856	
2563	0	32840	
2564	0	32808	
2565	0	32800	
2566	0	32776	
2567	0	32800	
2568	0	32782	
2569	0	32836	
2570	0	32872	
2571	0	32820	
2572	0	32752	
2573	0	32812	
2574	0	32856	
2575	0	32852	
2576	0	32808	
2577	0	32868	
2578	0	32856	
2579	0	32832	
2580	0	32856	
2581	0	32788	
2582	0	32872	
2583	0	32840	
2584	0	32796	
2585	0	32840	
2586	0	32772	
2587	0	32860	
2588	0	32822	
2589	0	32737	
2590	0	32824	
2591	0	32848	
2592	0	32844	
2593	0	32828	
2594	0	32826	
2595	0	32836	
2596	0	32904	
2597	0	32840	
2598	0	32800	
2599	0	32820	
2600	0	32828	
2601	0	32932	
2602	0	32884	
2603	0	32772	
2604	0	32838	
2605	0	32784	
2606	0	32788	
2607	0	32878	
2608	0	32828	
2609	0	32784	
2610	0	32800	
2611	0	32848	
2612	0	32814	
2613	0	32849	
2614	0	32808	
2615	0	32774	
2616	0	32864	
2617	0	32845	
2618	0	32928	
2619	0	32856	
2620	0	32888	
2621	0	32892	
2622	0	32848	
2623	0	32808	
2624	0	32836	
2625	0	32804	
2626	0	32820	
2627	0	32836	
2628	0	32788	
2629	0	32840	
2630	0	32848	
2631	0	32848	
2632	0	32756	
2633	0	32812	
2634	0	32816	
2635	0	32816	
2636	0	32820	
2637	0	32800	
2638	0	32880	
2639	0	32880	
2640	0	32836	
2641	0	32856	
2642	0	32860	
2643	0	32814	
2644	0	32865	
2645	0	32840	
2646	0	32812	
2647	0	32832	
2648	0	32848	
2649	0	32800	
2650	0	32804	
2651	0	32826	
2652	0	32856	
2653	0	32792	
2654	0	32772	
2655	0	32876	
2656	0	32856	
2657	0	32772	
2658	0	32810	
2659	0	32868	
2660	0	32836	
2661	0	32858	
2662	0	32848	
2663	0	32800	
2664	0	32812	
2665	0	32864	
2666	0	32824	
2667	0	32844	
2668	0	32808	
2669	0	32836	
2670	0	32814	
2671	0	32816	
2672	0	32764	
2673	0	32844	
2674	0	32820	
2675	0	32792	
2676	0	32848	
2677	0	32864	
2678	0	32888	
2679	0	32836	
2680	0	32821	
2681	0	32810	
2682	0	32818	
2683	0	32808	
2684	0	32804	
2685	0	32816	
2686	0	32772	
2687	0	32832	
2688	0	32732	
2689	0	32788	
2690	0	32836	
2691	0	32844	
2692	0	32840	
2693	0	32824	
2694	0	32824	
2695	0	32800	
2696	0	32885	
2697	0	32908	
2698	0	32844	
2699	0	32864	
2700	0	32780	
2701	0	32852	
2702	0	32828	
2703	0	32890	
2704	0	32836	
2705	0	32824	
2706	0	32812	
2707	0	32824	
2708	0	32840	
2709	0	32816	
2710	0	32756	
2711	0	32804	
2712	0	32824	
2713	0	32885	
2714	0	32856	
2715	0	32825	
2716	0	32896	
2717	0	32872	
2718	0	32876	
2719	0	32816	
2720	0	32812	
2721	0	32870	
2722	0	32792	
2723	0	32848	
2724	0	32840	
2725	0	32808	
2726	0	32812	
2727	0	32748	
2728	0	32776	
2729	0	32772	
2730	0	32820	
2731	0	32824	
2732	0	32800	
2733	0	32848	
2734	0	32808	
2735	0	32756	
2736	0	32856	
2737	0	32880	
2738	0	32896	
2739	0	32840	
2740	0	32868	
2741	0	32848	
2742	0	32836	
2743	0	32828	
2744	0	32868	
2745	0	32816	
2746	0	32808	
2747	0	32816	
2748	0	32780	
2749	0	32816	
2750	0	32820	
2751	0	32776	
2752	0	32812	
2753	0	32808	
2754	0	32800	
2755	0	32860	
2756	0	32828	
2757	0	32816	
2758	0	32868	
2759	0	32936	
2760	0	32880	
2761	0	32840	
2762	0	32836	
2763	0	32804	
2764	0	32808	
2765	0	32812	
2766	0	32780	
2767	0	32808	
2768	0	32828	
2769	0	32848	
2770	0	32794	
2771	0	32738	
2772	0	32832	
2773	0	32832	
2774	0	32812	
2775	0	32836	
2776	0	32832	
2777	0	32848	
2778	0	32904	
2779	0	32864	
2780	0	32880	
2781	0	32840	
2782	0	32772	
2783	0	32824	
2784	0	32804	
2785	0	32816	
2786	0	32836	
2787	0	32856	
2788	0	32828	
2789	0	32804	
2790	0	32844	
2791	0	32852	
2792	0	32840	
2793	0	32844	
2794	0	32808	
2795	0	32840	
2796	0	32796	
2797	0	32832	
2798	0	32768	
2799	0	32892	
2800	0	32901	
2801	0	32804	
2802	0	32832	
2803	0	32812	
2804	0	32888	
2805	0	32856	
2806	0	32716	
2807	0	32832	
2808	0	32816	
2809	0	32764	
2810	0	32764	
2811	0	32776	
2812	0	32824	
2813	0	32820	
2814	0	32804	
2815	0	32848	
2816	0	32796	
2817	0	32788	
2818	0	32860	
2819	0	32844	
2820	0	32844	
2821	0	32840	
2822	0	32800	
2823	0	32868	
2824	0	32880	
2825	0	32792	
2826	0	32836	
2827	0	32804	
2828	0	32732	
2829	0	32780	
2830	0	32788	
2831	0	32814	
2832	0	32880	
2833	0	32816	
2834	0	32764	
2835	0	32824	
2836	0	32888	
2837	0	32876	
2838	0	32824	
2839	0	32826	
2840	0	32896	
2841	0	32844	
2842	0	32820	
2843	0	32856	
2844	0	32848	
2845	0	32760	
2846	0	32856	
2847	0	32868	
2848	0	32808	
2849	0	32752	
2850	0	32784	
2851	0	32816	
2852	0	32844	
2853	0	32822	
2854	0	32833	
2855	0	32776	
2856	0	32856	
2857	0	32772	
2858	0	32856	
2859	0	32884	
2860	0	32800	
2861	0	32888	
2862	0	32840	
2863	0	32860	
2864	0	32768	
2865	0	32828	
2866	0	32820	
2867	0	32772	
2868	0	32748	
2869	0	32800	
2870	0	32792	
2871	0	32816	
2872	0	32832	
2873	0	32804	
2874	0	32816	
2875	0	32876	
2876	0	32840	
2877	0	32868	
2878	0	32824	
2879	0	32860	
2880	0	32840	
2881	0	32852	
2882	0	32804	
2883	0	32856	
2884	0	32784	
2885	0	32804	
2886	0	32804	
2887	0	32768	
2888	0	32824	
2889	0	32772	
2890	0	32780	
2891	0	32796	
2892	0	32845	
2893	0	32808	
2894	0	32852	
2895	0	32860	
2896	0	32856	
2897	0	32836	
2898	0	32780	
2899	0	32840	
2900	0	32796	
2901	0	32864	
2902	0	32872	
2903	0	32852	
2904	0	32788	
2905	0	32888	
2906	0	32774	
2907	0	32732	
2908	0	32832	
2909	0	32841	
2910	0	32832	
2911	0	32812	
2912	0	32837	
2913	0	32774	
2914	0	32756	
2915	0	32864	
2916	0	32828	
2917	0	32876	
2918	0	32868	
2919	0	32860	
2920	0	32888	
2921	0	32872	
2922	0	32878	
2923	0	32760	
2924	0	32824	
2925	0	32844	
2926	0	32808	
2927	0	32872	
2928	0	32752	
2929	0	32796	
2930	0	32840	
2931	0	32748	
2932	0	32788	
2933	0	32824	
2934	0	32824	
2935	0	32800	
2936	0	32800	
2937	0	32880	
2938	0	32816	
2939	0	32876	
2940	0	32830	
2941	0	32844	
2942	0	32908	
2943	0	32896	
2944	0	32824	
2945	0	32784	
2946	0	32820	
2947	0	32804	
2948	0	32860	
2949	0	32852	
2950	0	32792	
2951	0	32773	
2952	0	32788	
2953	0	32848	
2954	0	32768	
2955	0	32812	
2956	0	32920	
2957	0	32840	
2958	0	32842	
2959	0	32864	
2960	0	32820	
2961	0	32800	
2962	0	32860	
2963	0	32816	
2964	0	32840	
2965	0	32780	
2966	0	32757	
2967	0	32852	
2968	0	32780	
2969	0	32772	
2970	0	32760	
2971	0	32816	
2972	0	32774	
2973	0	32840	
2974	0	32860	
2975	0	32924	
2976	0	32880	
2977	0	32816	
2978	0	32908	
2979	0	32792	
2980	0	32860	
2981	0	32872	
2982	0	32736	
2983	0	32776	
2984	0	32824	
2985	0	32836	
2986	0	32784	
2987	0	32848	
2988	0	32852	
2989	0	32800	
2990	0	32752	
2991	0	32800	
2992	0	32816	
2993	0	32872	
2994	0	32872	
2995	0	32874	
2996	0	32802	
2997	0	32856	
2998	0	32872	
2999	0	32940	
3000	0	32804	
3001	0	32808	
3002	0	32824	
3003	0	32748	
3004	0	32860	
3005	0	32820	
3006	0	32800	
3007	0	32840	
3008	0	32840	
3009	0	32840	
3010	0	32800	
3011	0	32756	
3012	0	32828	
3013	0	32780	
3014	0	32848	
3015	0	32864	
3016	0	32872	
3017	0	32844	
3018	0	32812	
3019	0	32760	
3020	0	32804	
3021	0	32829	
3022	0	32812	
3023	0	32832	
3024	0	32824	
3025	0	32808	
3026	0	32780	
3027	0	32828	
3028	0	32768	
3029	0	32800	
3030	0	32820	
3031	0	32776	
3032	0	32800	
3033	0	32788	
3034	0	32848	
3035	0	32820	
3036	0	32824	
3037	0	32868	
3038	0	32868	
3039	0	32816	
3040	0	32864	
3041	0	32840	
3042	0	32836	
3043	0	32844	
3044	0	32828	
3045	0	32776	
3046	0	32792	
3047	0	32792	
3048	0	32840	
3049	0	32820	
3050	0	32804	
3051	0	32864	
3052	0	32814	
3053	0	32836	
3054	0	32812	
3055	0	32864	
3056	0	32844	
3057	0	32860	
3058	0	32829	
3059	0	32796	
3060	0	32860	
3061	0	32864	
3062	0	32788	
3063	0	32824	
3064	0	32850	
3065	0	32812	
3066	0	32792	
3067	0	32769	
3068	0	32772	
3069	0	32836	
3070	0	32812	
3071	0	32828	
3072	0	32848	
3073	0	32780	
3074	0	32896	
3075	0	32868	
3076	0	32848	
3077	0	32820	
3078	0	32889	
3079	0	32885	
3080	0	32860	
3081	0	32828	
3082	0	32816	
3083	0	32804	
3084	0	32792	
3085	0	32792	
3086	0	32796	
3087	0	32824	
3088	0	32852	
3089	0	32876	
3090	0	32770	
3091	0	32796	
3092	0	32792	
3093	0	32816	
3094	0	32772	
3095	0	32856	
3096	0	32832	
3097	0	32852	
3098	0	32852	
3099	0	32884	
3100	0	32848	
3101	0	32848	
3102	0	32836	
3103	0	32864	
3104	0	32808	
3105	0	32796	
3106	0	32788	
3107	0	32832	
3108	0	32804	
3109	0	32828	
3110	0	32860	
3111	0	32808	
3112	0	32784	
3113	0	32864	
3114	0	32764	
3115	0	32824	
3116	0	32896	
3117	0	32808	
3118	0	32876	
3119	0	32808	
3120	0	32864	
3121	0	32889	
3122	0	32856	
3123	0	32812	
3124	0	32776	
3125	0	32856	
3126	0	32816	
3127	0	32804	
3128	0	32828	
3129	0	32804	
3130	0	32812	
3131	0	32820	
3132	0	32828	
3133	0	32772	
3134	0	32836	
3135	0	32864	
3136	0	32844	
3137	0	32876	
3138	0	32860	
3139	0	32800	
3140	0	32774	
3141	0	32812	
3142	0	32842	
3143	0	32820	
3144	0	32804	
3145	0	32820	
3146	0	32817	
3147	0	32828	
3148	0	32824	
3149	0	32828	
3150	0	32828	
3151	0	32800	
3152	0	32724	
3153	0	32840	
3154	0	32820	
3155	0	32892	
3156	0	32872	
3157	0	32780	
3158	0	32820	
3159	0	32776	
3160	0	32844	
3161	0	32800	
3162	0	32848	
3163	0	32820	
3164	0	32828	
3165	0	32764	
3166	0	32788	
3167	0	32872	
3168	0	32816	
3169	0	32840	
3170	0	32816	
3171	0	32769	
3172	0	32832	
3173	0	32864	
3174	0	32852	
3175	0	32816	
3176	0	32868	
3177	0	32816	
3178	0	32840	
3179	0	32864	
3180	0	32840	
3181	0	32872	
3182	0	32840	
3183	0	32828	
3184	0	32788	
3185	0	32808	
3186	0	32752	
3187	0	32836	
3188	0	32780	
3189	0	32820	
3190	0	32792	
3191	0	32808	
3192	0	32864	
3193	0	32826	
3194	0	32860	
3195	0	32824	
3196	0	32828	
3197	0	32832	
3198	0	32880	
3199	0	32840	
3200	0	32792	
3201	0	32812	
3202	0	32868	
3203	0	32784	
3204	0	32820	
3205	0	32828	
3206	0	32776	
3207	0	32816	
3208	0	32788	
3209	0	32826	
3210	0	32821	
3211	0	32824	
3212	0	32820	
3213	0	32848	
3214	0	32808	
3215	0	32840	
3216	0	32816	
3217	0	32836	
3218	0	32904	
3219	0	32862	
3220	0	32836	
3221	0	32888	
3222	0	32752	
3223	0	32772	
3224	0	32728	
3225	0	32804	
3226	0	32804	
3227	0	32812	
3228	0	32764	
3229	0	32876	
3230	0	32800	
3231	0	32884	
3232	0	32824	
3233	0	32788	
3234	0	32804	
3235	0	32816	
3236	0	32864	
3237	0	32792	
3238	0	32812	
3239	0	32848	
3240	0	32842	
3241	0	32872	
3242	0	32760	
3243	0	32812	
3244	0	32772	
3245	0	32892	
3246	0	32834	
3247	0	32872	
3248	0	32776	
3249	0	32828	
3250	0	32822	
3251	0	32844	
3252	0	32728	
3253	0	32785	
3254	0	32812	
3255	0	32864	
3256	0	32865	
3257	0	32844	
3258	0	32800	
3259	0	32800	
3260	0	32800	
3261	0	32809	
3262	0	32896	
3263	0	32880	
3264	0	32802	
3265	0	32780	
3266	0	32824	
3267	0	32858	
3268	0	32812	
3269	0	32776	
3270	0	32908	
3271	0	32824	
3272	0	32868	
3273	0	32824	
3274	0	32824	
3275	0	32824	
3276	0	32828	
3277	0	32760	
3278	0	32837	
3279	0	32832	
3280	0	32908	
3281	0	32880	
3282	0	32856	
3283	0	32840	
3284	0	32816	
3285	0	32872	
3286	0	32816	
3287	0	32812	
3288	0	32788	
3289	0	32816	
3290	0	32832	
3291	0	32804	
3292	0	32764	
3293	0	32860	
3294	0	32824	
3295	0	32836	
3296	0	32832	
3297	0	32840	
3298	0	32832	
3299	0	32860	
3300	0	32888	
3301	0	32880	
3302	0	32748	
3303	0	32800	
3304	0	32796	
3305	0	32816	
3306	0	32832	
3307	0	32810	
3308	0	32796	
3309	0	32756	
3310	0	32828	
3311	0	32824	
3312	0	32860	
3313	0	32856	
3314	0	32820	
3315	0	32836	
3316	0	32824	
3317	0	32832	
3318	0	32832	
3319	0	32840	
3320	0	32840	
3321	0	32784	
3322	0	32884	
3323	0	32860	
3324	0	32844	
3325	0	32848	
3326	0	32840	
3327	0	32784	
3328	0	32796	
3329	0	32772	
3330	0	32804	
3331	0	32800	
3332	0	32856	
3333	0	32782	
3334	0	32844	
3335	0	32816	
3336	0	32860	
3337	0	32812	
3338	0	32880	
3339	0	32836	
3340	0	32868	
3341	0	32852	
3342	0	32824	
3343	0	32828	
3344	0	32808	
3345	0	32804	
3346	0	32748	
3347	0	32836	
3348	0	32774	
3349	0	32816	
3350	0	32816	
3351	0	32812	
3352	0	32808	
3353	0	32784	
3354	0	32864	
3355	0	32904	
3356	0	32868	
3357	0	32844	
3358	0	32801	
3359	0	32802	
3360	0	32788	
3361	0	32796	
3362	0	32888	
3363	0	32848	
3364	0	32775	
3365	0	32836	
3366	0	32808	
3367	0	32852	
3368	0	32752	
3369	0	32804	
3370	0	32824	
3371	0	32800	
3372	0	32812	
3373	0	32780	
3374	0	32784	
3375	0	32860	
3376	0	32848	
3377	0	32844	
3378	0	32816	
3379	0	32808	
3380	0	32800	
3381	0	32856	
3382	0	32864	
3383	0	32804	
3384	0	32821	
3385	0	32752	
3386	0	32748	
3387	0	32828	
3388	0	32804	
3389	0	32824	
3390	0	32812	
3391	0	32820	
3392	0	32753	
3393	0	32800	
3394	0	32816	
3395	0	32872	
3396	0	32828	
3397	0	32896	
3398	0	32828	
3399	0	32864	
3400	0	32884	
3401	0	32876	
3402	0	32808	
3403	0	32836	
3404	0	32752	
3405	0	32737	
3406	0	32804	
3407	0	32836	
3408	0	32864	
3409	0	32876	
3410	0	32752	
3411	0	32846	
3412	0	32808	
3413	0	32852	
3414	0	32800	
3415	0	32800	
3416	0	32816	
3417	0	32836	
3418	0	32924	
3419	0	32837	
3420	0	32858	
3421	0	32840	
3422	0	32832	
3423	0	32845	
3424	0	32756	
3425	0	32760	
3426	0	32848	
3427	0	32828	
3428	0	32830	
3429	0	32816	
3430	0	32860	
3431	0	32864	
3432	0	32780	
3433	0	32876	
3434	0	32800	
3435	0	32812	
3436	0	32924	
3437	0	32828	
3438	0	32836	
3439	0	32776	
3440	0	32832	
3441	0	32846	
3442	0	32820	
3443	0	32828	
3444	0	32836	
3445	0	32832	
3446	0	32800	
3447	0	32820	
3448	0	32794	
3449	0	32780	
3450	0	32780	
3451	0	32816	
3452	0	32852	
3453	0	32792	
3454	0	32860	
3455	0	32852	
3456	0	32852	
3457	0	32748	
3458	0	32772	
3459	0	32868	
3460	0	32788	
3461	0	32864	
3462	0	32816	
3463	0	32876	
3464	0	32848	
3465	0	32768	
3466	0	32840	
3467	0	32824	
3468	0	32800	
3469	0	32800	
3470	0	32808	
3471	0	32808	
3472	0	32820	
3473	0	32880	
3474	0	32852	
3475	0	32872	
3476	0	32868	
3477	0	32836	
3478	0	32808	
3479	0	32836	
3480	0	32824	
3481	0	32848	
3482	0	32792	
3483	0	32836	
3484	0	32850	
3485	0	32850	
3486	0	32772	
3487	0	32836	
3488	0	32820	
3489	0	32816	
3490	0	32820	
3491	0	32748	
3492	0	32824	
3493	0	32828	
3494	0	32848	
3495	0	32844	
3496	0	32780	
3497	0	32848	
3498	0	32828	
3499	0	32888	
3500	0	32824	
3501	0	32780	
3502	0	32876	
3503	0	32844	
3504	0	32768	
3505	0	32792	
3506	0	32801	
3507	0	32764	
3508	0	32848	
3509	0	32861	
3510	0	32868	
3511	0	32788	
3512	0	32840	
3513	0	32856	
3514	0	32828	
3515	0	32784	
3516	0	32908	
3517	0	32850	
3518	0	32776	
3519	0	32860	
3520	0	32792	
3521	0	32832	
3522	0	32828	
3523	0	32760	
3524	0	32848	
3525	0	32804	
3526	0	32832	
3527	0	32780	
3528	0	32824	
3529	0	32764	
3530	0	32788	
3531	0	32788	
3532	0	32788	
3533	0	32872	
3534	0	32812	
3535	0	32840	
3536	0	32806	
3537	0	32848	
3538	0	32852	
3539	0	32824	
3540	0	32881	
3541	0	32800	
3542	0	32808	
3543	0	32768	
3544	0	32852	
3545	0	32852	
3546	0	32808	
3547	0	32800	
3548	0	32840	
3549	0	32856	
3550	0	32796	
3551	0	32820	
3552	0	32844	
3553	0	32812	
3554	0	32820	
3555	0	32832	
3556	0	32824	
3557	0	32796	
3558	0	32832	
3559	0	32876	
3560	0	32788	
3561	0	32764	
3562	0	32832	
3563	0	32849	
3564	0	32856	
3565	0	32796	
3566	0	32768	
3567	0	32833	
3568	0	32840	
3569	0	32800	
3570	0	32812	
3571	0	32864	
3572	0	32848	
3573	0	32816	
3574	0	32844	
3575	0	32736	
3576	0	32836	
3577	0	32824	
3578	0	32864	
3579	0	32848	
3580	0	32932	
3581	0	32800	
3582	0	32860	
3583	0	32804	
3584	0	32796	
3585	0	32784	
3586	0	32884	
3587	0	32824	
3588	0	32812	
3589	0	32792	
3590	0	32756	
3591	0	32808	
3592	0	32860	
3593	0	32820	
3594	0	32796	
3595	0	32776	
3596	0	32808	
3597	0	32804	
3598	0	32860	
3599	0	32820	
3600	0	32864	
3601	0	32853	
3602	0	32820	
3603	0	32836	
3604	0	32852	
3605	0	32728	
3606	0	32840	
3607	0	32826	
3608	0	32752	
3609	0	32800	
3610	0	32892	
3611	0	32860	
3612	0	32800	
3613	0	32768	
3614	0	32840	
3615	0	32800	
3616	0	32812	
3617	0	32828	
3618	0	32812	
3619	0	32856	
3620	0	32876	
3621	0	32836	
3622	0	32796	
3623	0	32824	
3624	0	32780	
3625	0	32804	
3626	0	32852	
3627	0	32860	
3628	0	32844	
3629	0	32836	
3630	0	32784	
3631	0	32818	
3632	0	32832	
3633	0	32816	
3634	0	32844	
3635	0	32824	
3636	0	32833	
3637	0	32884	
3638	0	32872	
3639	0	32864	
3640	0	32836	
3641	0	32788	
3642	0	32840	
3643	0	32820	
3644	0	32800	
3645	0	32824	
3646	0	32816	
3647	0	32856	
3648	0	32876	
3649	0	32824	
3650	0	32800	
3651	0	32788	
3652	0	32772	
3653	0	32800	
3654	0	32820	
3655	0	32832	
3656	0	32852	
3657	0	32806	
3658	0	32880	
3659	0	32840	
3660	0	32880	
3661	0	32792	
3662	0	32844	
3663	0	32812	
3664	0	32828	
3665	0	32824	
3666	0	32872	
3667	0	32800	
3668	0	32816	
3669	0	32796	
3670	0	32828	
3671	0	32820	
3672	0	32852	
3673	0	32824	
3674	0	32770	
3675	0	32896	
3676	0	32832	
3677	0	32800	
3678	0	32792	
3679	0	32848	
3680	0	32824	
3681	0	32808	
3682	0	32776	
3683	0	32912	
3684	0	32788	
3685	0	32744	
3686	0	32840	
3687	0	32756	
3688	0	32816	
3689	0	32864	
3690	0	32748	
3691	0	32880	
3692	0	32792	
3693	0	32836	
3694	0	32828	
3695	0	32840	
3696	0	32856	
3697	0	32884	
3698	0	32876	
3699	0	32820	
3700	0	32868	
3701	0	32800	
3702	0	32800	
3703	0	32832	
3704	0	32804	
3705	0	32820	
3706	0	32768	
3707	0	32792	
3708	0	32780	
3709	0	32828	
3710	0	32856	
3711	0	32784	
3712	0	32860	
3713	0	32850	
3714	0	32796	
3715	0	32876	
3716	0	32868	
3717	0	32856	
3718	0	32920	
3719	0	32856	
3720	0	32732	
3721	0	32768	
3722	0	32832	
3723	0	32833	
3724	0	32868	
3725	0	32792	
3726	0	32800	
3727	0	32848	
3728	0	32808	
3729	0	32868	
3730	0	32784	
3731	0	32764	
3732	0	32852	
3733	0	32856	
3734	0	32824	
3735	0	32836	
3736	0	32840	
3737	0	32768	
3738	0	32840	
3739	0	32896	
3740	0	32836	
3741	0	32768	
3742	0	32806	
3743	0	32852	
3744	0	32796	
3745	0	32840	
3746	0	32800	
3747	0	32824	
3748	0	32844	
3749	0	32812	
3750	0	32788	
3751	0	32856	
3752	0	32812	
3753	0	32844	
3754	0	32828	
3755	0	32872	
3756	0	32864	
3757	0	32804	
3758	0	32876	
3759	0	32772	
3760	0	32846	
3761	0	32720	
3762	0	32812	
3763	0	32828	
3764	0	32880	
3765	0	32788	
3766	0	32774	
3767	0	32788	
3768	0	32764	
3769	0	32764	
3770	0	32804	
3771	0	32808	
3772	0	32828	
3773	0	32800	
3774	0	32816	
3775	0	32816	
3776	0	32872	
3777	0	32852	
3778	0	32840	
3779	0	32886	
3780	0	32844	
3781	0	32884	
3782	0	32804	
3783	0	32768	
3784	0	32868	
3785	0	32728	
3786	0	32808	
3787	0	32788	
3788	0	32836	
3789	0	32824	
3790	0	32866	
3791	0	32820	
3792	0	32788	
3793	0	32852	
3794	0	32836	
3795	0	32876	
3796	0	32896	
3797	0	32824	
3798	0	32892	
3799	0	32844	
3800	0	32804	
3801	0	32796	
3802	0	32816	
3803	0	32796	
3804	0	32764	
3805	0	32848	
3806	0	32792	
3807	0	32832	
3808	0	32772	
3809	0	32832	
3810	0	32804	
3811	0	32820	
3812	0	32814	
3813	0	32812	
3814	0	32816	
3815	0	32821	
3816	0	32796	
3817	0	32872	
3818	0	32884	
3819	0	32908	
3820	0	32896	
3821	0	32784	
3822	0	32808	
3823	0	32836	
3824	0	32820	
3825	0	32792	
3826	0	32785	
3827	0	32748	
3828	0	32836	
3829	0	32804	
3830	0	32774	
3831	0	32832	
3832	0	32796	
3833	0	32812	
3834	0	32856	
3835	0	32852	
3836	0	32848	
3837	0	32868	
3838	0	32868	
3839	0	32876	
3840	0	32792	
3841	0	32788	
3842	0	32874	
3843	0	32796	
3844	0	32812	
3845	0	32784	
3846	0	32820	
3847	0	32808	
3848	0	32816	
3849	0	32833	
3850	0	32837	
3851	0	32884	
3852	0	32850	
3853	0	32816	
3854	0	32860	
3855	0	32820	
3856	0	32816	
3857	0	32840	
3858	0	32857	
3859	0	32792	
3860	0	32880	
3861	0	32892	
3862	0	32832	
3863	0	32796	
3864	0	32800	
3865	0	32816	
3866	0	32808	
3867	0	32816	
3868	0	32804	
3869	0	32734	
3870	0	32800	
3871	0	32844	
3872	0	32828	
3873	0	32792	
3874	0	32852	
3875	0	32868	
3876	0	32836	
3877	0	32848	
3878	0	32892	
3879	0	32852	
3880	0	32772	
3881	0	32764	
3882	0	32800	
3883	0	32828	
3884	0	32860	
3885	0	32808	
3886	0	32804	
3887	0	32880	
3888	0	32828	
3889	0	32724	
3890	0	32832	
3891	0	32860	
3892	0	32824	
3893	0	32748	
3894	0	32872	
3895	0	32792	
3896	0	32820	
3897	0	32848	
3898	0	32832	
3899	0	32912	
3900	0	32844	
3901	0	32901	
3902	0	32760	
3903	0	32792	
3904	0	32860	
3905	0	32832	
3906	0	32848	
3907	0	32764	
3908	0	32808	
3909	0	32828	
3910	0	32832	
3911	0	32764	
3912	0	32844	
3913	0	32808	
3914	0	32888	
3915	0	32853	
3916	0	32836	
3917	0	32860	
3918	0	32808	
3919	0	32756	
3920	0	32892	
3921	0	32884	
3922	0	32776	
3923	0	32864	
3924	0	32778	
3925	0	32784	
3926	0	32864	
3927	0	32826	
3928	0	32840	
3929	0	32880	
3930	0	32798	
3931	0	32821	
3932	0	32744	
3933	0	32824	
3934	0	32904	
3935	0	32792	
3936	0	32808	
3937	0	32824	
3938	0	32860	
3939	0	32864	
3940	0	32804	
3941	0	32846	
3942	0	32852	
3943	0	32740	
3944	0	32750	
3945	0	32824	
3946	0	32736	
3947	0	32720	
3948	0	32820	
3949	0	32828	
3950	0	32834	
3951	0	32840	
3952	0	32808	
3953	0	32786	
3954	0	32828	
3955	0	32848	
3956	0	32792	
3957	0	32840	
3958	0	32852	
3959	0	32834	
3960	0	32828	
3961	0	32880	
3962	0	32824	
3963	0	32800	
3964	0	32776	
3965	0	32788	
3966	0	32804	
3967	0	32792	
3968	0	32824	
3969	0	32800	
3970	0	32850	
3971	0	32840	
3972	0	32820	
3973	0	32828	
3974	0	32756	
3975	0	32852	
3976	0	32816	
3977	0	32846	
3978	0	32864	
3979	0	32818	
3980	0	32824	
3981	0	32848	
3982	0	32886	
3983	0	32808	
3984	0	32912	
3985	0	32753	
3986	0	32812	
3987	0	32824	
3988	0	32844	
3989	0	32700	
3990	0	32848	
3991	0	32756	
3992	0	32804	
3993	0	32824	
3994	0	32848	
3995	0	32848	
3996	0	32784	
3997	0	32888	
3998	0	32868	
3999	0	32872	
4000	0	32832	
4001	0	32852	
4002	0	32848	
4003	0	32816	
4004	0	32868	
4005	0	32780	
4006	0	32836	
4007	0	32824	
4008	0	32720	
4009	0	32848	
4010	0	32860	
4011	0	32816	
4012	0	32824	
4013	0	32820	
4014	0	32880	
4015	0	32812	
4016	0	32836	
4017	0	32816	
4018	0	32820	
4019	0	32856	
4020	0	32796	
4021	0	32856	
4022	0	32852	
4023	0	32832	
4024	0	32812	
4025	0	32820	
4026	0	32872	
4027	0	32838	
4028	0	32844	
4029	0	32820	
4030	0	32776	
4031	0	32856	
4032	0	32793	
4033	0	32768	
4034	0	32844	
4035	0	32836	
4036	0	32840	
4037	0	32872	
4038	0	32820	
4039	0	32804	
4040	0	32848	
4041	0	32856	
4042	0	32880	
4043	0	32868	
4044	0	32848	
4045	0	32756	
4046	0	32820	
4047	0	32768	
4048	0	32776	
4049	0	32808	
4050	0	32792	
4051	0	32808	
4052	0	32816	
4053	0	32852	
4054	0	32772	
4055	0	32856	
4056	0	32868	
4057	0	32896	
4058	0	32896	
4059	0	32876	
4060	0	32852	
4061	0	32800	
4062	0	32804	
4063	0	32824	
4064	0	32812	
4065	0	32800	
4066	0	32830	
4067	0	32824	
4068	0	32801	
4069	0	32816	
4070	0	32816	
4071	0	32836	
4072	0	32872	
4073	0	32884	
4074	0	32828	
4075	0	32832	
4076	0	32844	
4077	0	32780	
4078	0	32860	
4079	0	32808	
4080	0	32860	
4081	0	32840	
4082	0	32884	
4083	0	32824	
4084	0	32824	
4085	0	32780	
4086	0	32760	
4087	0	32844	
4088	0	32776	
4089	0	32756	
4090	0	32834	
4091	0	32836	
4092	0	32890	
4093	0	32824	
4094	0	32794	
4095	0	32896	
4096	0	32836	
4097	0	32892	
4098	0	32864	
4099	0	32828	
4100	0	32882	
4101	0	32852	
4102	0	32796	
4103	0	32832	
4104	0	32824	
4105	0	32832	
4106	0	32828	
4107	0	32812	
4108	0	32772	
4109	0	32814	
4110	0	32744	
4111	0	32772	
4112	0	32868	
4113	0	32808	
4114	0	32844	
4115	0	32856	
4116	0	32840	
4117	0	32860	
4118	0	32844	
4119	0	32832	
4120	0	32824	
4121	0	32784	
4122	0	32781	
4123	0	32848	
4124	0	32848	
4125	0	32860	
4126	0	32808	
4127	0	32868	
4128	0	32788	
4129	0	32820	
4130	0	32852	
4131	0	32820	
4132	0	32844	
4133	0	32868	
4134	0	32868	
4135	0	32810	
4136	0	32780	
4137	0	32852	
4138	0	32872	
4139	0	32920	
4140	0	32810	
4141	0	32820	
4142	0	32804	
4143	0	32844	
4144	0	32820	
4145	0	32808	
4146	0	32800	
4147	0	32848	
4148	0	32804	
4149	0	32756	
4150	0	32814	
4151	0	32788	
4152	0	32800	
4153	0	32788	
4154	0	32881	
4155	0	32884	
4156	0	32784	
4157	0	32788	
4158	0	32836	
4159	0	32884	
4160	0	32860	
4161	0	32820	
4162	0	32896	
4163	0	32784	
4164	0	32764	
4165	0	32816	
4166	0	32820	
4167	0	32780	
4168	0	32764	
4169	0	32820	
4170	0	32770	
4171	0	32740	
4172	0	32872	
4173	0	32856	
4174	0	32832	
4175	0	32780	
4176	0	32864	
4177	0	32874	
4178	0	32816	
4179	0	32872	
4180	0	32772	
4181	0	32816	
4182	0	32876	
4183	0	32828	
4184	0	32864	
4185	0	32840	
4186	0	32812	
4187	0	32788	
4188	0	32760	
4189	0	32824	
4190	0	32780	
4191	0	32756	
4192	0	32808	
4193	0	32916	
4194	0	32804	
4195	0	32856	
4196	0	32840	
4197	0	32912	
4198	0	32832	
4199	0	32832	
4200	0	32816	
4201	0	32912	
4202	0	32860	
4203	0	32800	
4204	0	32832	
4205	0	32816	
4206	0	32776	
4207	0	32816	
4208	0	32812	
4209	0	32800	
4210	0	32828	
4211	0	32780	
4212	0	32876	
4213	0	32808	
4214	0	32912	
4215	0	32864	
4216	0	32752	
4217	0	32832	
4218	0	32808	
4219	0	32810	
4220	0	32916	
4221	0	32828	
4222	0	32828	
4223	0	32852	
4224	0	32800	
4225	0	32804	
4226	0	32806	
4227	0	32812	
4228	0	32784	
4229	0	32720	
4230	0	32826	
4231	0	32826	
4232	0	32816	
4233	0	32820	
4234	0	32792	
4235	0	32864	
4236	0	32938	
4237	0	32836	
4238	0	32824	
4239	0	32840	
4240	0	32784	
4241	0	32808	
4242	0	32824	
4243	0	32816	
4244	0	32784	
4245	0	32764	
4246	0	32812	
4247	0	32810	
4248	0	32816	
4249	0	32756	
4250	0	32764	
4251	0	32796	
4252	0	32808	
4253	0	32798	
4254	0	32780	
4255	0	32856	
4256	0	32884	
4257	0	32864	
4258	0	32848	
4259	0	32776	
4260	0	32844	
4261	0	32784	
4262	0	32872	
4263	0	32820	
4264	0	32752	
4265	0	32788	
4266	0	32872	
4267	0	32842	
4268	0	32816	
4269	0	32808	
4270	0	32832	
4271	0	32852	
4272	0	32800	
4273	0	32860	
4274	0	32800	
4275	0	32772	
4276	0	32848	
4277	0	32872	
4278	0	32898	
4279	0	32852	
4280	0	32816	
4281	0	32796	
4282	0	32848	
4283	0	32868	
4284	0	32800	
4285	0	32756	
4286	0	32840	
4287	0	32768	
4288	0	32816	
4289	0	32792	
4290	0	32760	
4291	0	32824	
4292	0	32876	
4293	0	32825	
4294	0	32892	
4295	0	32820	
4296	0	32868	
4297	0	32876	
4298	0	32896	
4299	0	32824	
4300	0	32832	
4301	0	32796	
4302	0	32808	
4303	0	32788	
4304	0	32860	
4305	0	32884	
4306	0	32822	
4307	0	32826	
4308	0	32768	
4309	0	32804	
4310	0	32792	
4311	0	32884	
4312	0	32796	
4313	0	32916	
4314	0	32788	
4315	0	32833	
4316	0	32860	
4317	0	32796	
4318	0	32816	
4319	0	32812	
4320	0	32812	
4321	0	32856	
4322	0	32820	
4323	0	32796	
4324	0	32828	
4325	0	32796	
4326	0	32856	
4327	0	32924	
4328	0	32804	
4329	0	32820	
4330	0	32816	
4331	0	32776	
4332	0	32852	
4333	0	32844	
4334	0	32882	
4335	0	32868	
4336	0	32840	
4337	0	32900	
4338	0	32878	
4339	0	32804	
4340	0	32828	
4341	0	32810	
4342	0	32824	
4343	0	32780	
4344	0	32812	
4345	0	32852	
4346	0	32764	
4347	0	32804	
4348	0	32792	
4349	0	32780	
4350	0	32824	
4351	0	32784	
4352	0	32802	
4353	0	32788	
4354	0	32764	
4355	0	32872	
4356	0	32872	
4357	0	32828	
4358	0	32904	
4359	0	32872	
4360	0	32840	
4361	0	32788	
4362	0	32820	
4363	0	32856	
4364	0	32777	
4365	0	32776	
4366	0	32800	
4367	0	32780	
4368	0	32872	
4369	0	32736	
4370	0	32776	
4371	0	32872	
4372	0	32820	
4373	0	32882	
4374	0	32856	
4375	0	32824	
4376	0	32808	
4377	0	32792	
4378	0	32776	
4379	0	32868	
4380	0	32846	
4381	0	32896	
4382	0	32860	
4383	0	32804	
4384	0	32780	
4385	0	32752	
4386	0	32776	
4387	0	32836	
4388	0	32836	
4389	0	32780	
4390	0	32812	
4391	0	32776	
4392	0	32832	
4393	0	32868	
4394	0	32848	
4395	0	32824	
4396	0	32842	
4397	0	32836	
4398	0	32876	
4399	0	32924	
4400	0	32792	
4401	0	32828	
4402	0	32812	
4403	0	32840	
4404	0	32820	
4405	0	32828	
4406	0	32796	
4407	0	32808	
4408	0	32824	
4409	0	32740	
4410	0	32852	
4411	0	32796	
4412	0	32812	
4413	0	32816	
4414	0	32852	
4415	0	32812	
4416	0	32832	
4417	0	32872	
4418	0	32868	
4419	0	32904	
4420	0	32788	
4421	0	32876	
4422	0	32804	
4423	0	32768	
4424	0	32832	
4425	0	32768	
4426	0	32788	
4427	0	32788	
4428	0	32812	
4429	0	32832	
4430	0	32792	
4431	0	32824	
4432	0	32848	
4433	0	32848	
4434	0	32820	
4435	0	32896	
4436	0	32840	
4437	0	32792	
4438	0	32884	
4439	0	32820	
4440	0	32916	
4441	0	32852	
4442	0	32789	
4443	0	32760	
4444	0	32768	
4445	0	32772	
4446	0	32800	
4447	0	32832	
4448	0	32822	
4449	0	32800	
4450	0	32764	
4451	0	32828	
4452	0	32808	
4453	0	32916	
4454	0	32860	
4455	0	32856	
4456	0	32856	
4457	0	32858	
4458	0	32768	
4459	0	32832	
4460	0	32908	
4461	0	32802	
4462	0	32730	
4463	0	32798	
4464	0	32768	
4465	0	32788	
4466	0	32796	
4467	0	32796	
4468	0	32760	
4469	0	32872	
4470	0	32808	
4471	0	32796	
4472	0	32837	
4473	0	32812	
4474	0	32874	
4475	0	32844	
4476	0	32848	
4477	0	32856	
4478	0	32852	
4479	0	32786	
4480	0	32832	
4481	0	32796	
4482	0	32772	
4483	0	32832	
4484	0	32804	
4485	0	32856	
4486	0	32764	
4487	0	32892	
4488	0	32788	
4489	0	32808	
4490	0	32824	
4491	0	32820	
4492	0	32828	
4493	0	32880	
4494	0	32824	
4495	0	32796	
4496	0	32920	
4497	0	32856	
4498	0	32826	
4499	0	32856	
4500	0	32844	
4501	0	32845	
4502	0	32808	
4503	0	32792	
4504	0	32760	
4505	0	32760	
4506	0	32810	
4507	0	32908	
4508	0	32792	
4509	0	32760	
4510	0	32820	
4511	0	32816	
4512	0	32852	
4513	0	32834	
4514	0	32876	
4515	0	32868	
4516	0	32848	
4517	0	32864	
4518	0	32868	
4519	0	32832	
4520	0	32861	
4521	0	32816	
4522	0	32836	
4523	0	32822	
4524	0	32822	
4525	0	32804	
4526	0	32814	
4527	0	32826	
4528	0	32796	
4529	0	32864	
4530	0	32816	
4531	0	32812	
4532	0	32780	
4533	0	32796	
4534	0	32852	
4535	0	32864	
4536	0	32844	
4537	0	32896	
4538	0	32910	
4539	0	32852	
4540	0	32856	
4541	0	32832	
4542	0	32852	
4543	0	32812	
4544	0	32816	
4545	0	32792	
4546	0	32776	
4547	0	32792	
4548	0	32848	
4549	0	32748	
4550	0	32868	
4551	0	32844	
4552	0	32808	
4553	0	32836	
4554	0	32904	
4555	0	32864	
4556	0	32836	
4557	0	32738	
4558	0	32824	
4559	0	32824	
4560	0	32760	
4561	0	32788	
4562	0	32816	
4563	0	32868	
4564	0	32876	
4565	0	32832	
4566	0	32774	
4567	0	32832	
4568	0	32808	
4569	0	32820	
4570	0	32828	
4571	0	32840	
4572	0	32792	
4573	0	32884	
4574	0	32816	
4575	0	32800	
4576	0	32832	
4577	0	32828	
4578	0	32844	
4579	0	32888	
4580	0	32856	
4581	0	32800	
4582	0	32832	
4583	0	32816	
4584	0	32774	
4585	0	32816	
4586	0	32828	
4587	0	32916	
4588	0	32866	
4589	0	32828	
4590	0	32720	
4591	0	32804	
4592	0	32884	
4593	0	32840	
4594	0	32820	
4595	0	32860	
4596	0	32844	
4597	0	32852	
4598	0	32800	
4599	0	32876	
4600	0	32832	
4601	0	32833	
4602	0	32796	
4603	0	32856	
4604	0	32800	
4605	0	32824	
4606	0	32768	
4607	0	32872	
4608	0	32852	
4609	0	32816	
4610	0	32850	
4611	0	32836	
4612	0	32804	
4613	0	32768	
4614	0	32816	
4615	0	32832	
4616	0	32840	
4617	0	32872	
4618	0	32812	
4619	0	32820	
4620	0	32800	
4621	0	32840	
4622	0	32920	
4623	0	32800	
4624	0	32800	
4625	0	32756	
4626	0	32764	
4627	0	32826	
4628	0	32820	
4629	0	32812	
4630	0	32824	
4631	0	32818	
4632	0	32912	
4633	0	32836	
4634	0	32838	
4635	0	32812	
4636	0	32812	
4637	0	32848	
4638	0	32880	
4639	0	32856	
4640	0	32884	
4641	0	32816	
4642	0	32848	
4643	0	32840	
4644	0	32784	
4645	0	32808	
4646	0	32796	
4647	0	32812	
4648	0	32864	
4649	0	32833	
4650	0	32812	
4651	0	32820	
4652	0	32848	
4653	0	32862	
4654	0	32856	
4655	0	32844	
4656	0	32882	
4657	0	32853	
4658	0	32764	
4659	0	32804	
4660	0	32856	
4661	0	32796	
4662	0	32816	
4663	0	32852	
4664	0	32860	
4665	0	32864	
4666	0	32848	
4667	0	32732	
4668	0	32812	
4669	0	32840	
4670	0	32828	
4671	0	32784	
4672	0	32804	
4673	0	32852	
4674	0	32848	
4675	0	32880	
4676	0	32772	
4677	0	32816	
4678	0	32848	
4679	0	32884	
4680	0	32852	
4681	0	32784	
4682	0	32820	
4683	0	32784	
4684	0	32862	
4685	0	32820	
4686	0	32804	
4687	0	32788	
4688	0	32752	
4689	0	32844	
4690	0	32884	
4691	0	32840	
4692	0	32880	
4693	0	32868	
4694	0	32838	
4695	0	32808	
4696	0	32864	
4697	0	32820	
4698	0	32776	
4699	0	32800	
4700	0	32872	
4701	0	32864	
4702	0	32848	
4703	0	32820	
4704	0	32804	
4705	0	32772	
4706	0	32776	
4707	0	32748	
4708	0	32768	
4709	0	32816	
4710	0	32836	
4711	0	32816	
4712	0	32868	
4713	0	32856	
4714	0	32888	
4715	0	32884	
4716	0	32904	
4717	0	32916	
4718	0	32892	
4719	0	32836	
4720	0	32820	
4721	0	32812	
4722	0	32788	
4723	0	32820	
4724	0	32824	
4725	0	32824	
4726	0	32816	
4727	0	32868	
4728	0	32832	
4729	0	32800	
4730	0	32812	
4731	0	32788	
4732	0	32836	
4733	0	32848	
4734	0	32844	
4735	0	32892	
4736	0	32864	
4737	0	32836	
4738	0	32788	
4739	0	32864	
4740	0	32860	
4741	0	32872	
4742	0	32852	
4743	0	32852	
4744	0	32820	
4745	0	32780	
4746	0	32860	
4747	0	32744	
4748	0	32752	
4749	0	32808	
4750	0	32816	
4751	0	32844	
4752	0	32844	
4753	0	32872	
4754	0	32828	
4755	0	32800	
4756	0	32880	
4757	0	32888	
4758	0	32816	
4759	0	32808	
4760	0	32876	
4761	0	32828	
4762	0	32788	
4763	0	32832	
4764	0	32800	
4765	0	32756	
4766	0	32776	
4767	0	32808	
4768	0	32836	
4769	0	32828	
4770	0	32796	
4771	0	32852	
4772	0	32848	
4773	0	32836	
4774	0	32852	
4775	0	32840	
4776	0	32828	
4777	0	32860	
4778	0	32804	
4779	0	32840	
4780	0	32880	
4781	0	32848	
4782	0	32824	
4783	0	32792	
4784	0	32808	
4785	0	32775	
4786	0	32744	
4787	0	32796	
4788	0	32772	
4789	0	32872	
4790	0	32848	
4791	0	32872	
4792	0	32848	
4793	0	32868	
4794	0	32836	
4795	0	32880	
4796	0	32788	
4797	0	32884	
4798	0	32804	
4799	0	32800	
4800	0	32866	
4801	0	32800	
4802	0	32832	
4803	0	32808	
4804	0	32812	
4805	0	32816	
4806	0	32860	
4807	0	32828	
4808	0	32792	
4809	0	32868	
4810	0	32832	
4811	0	32800	
4812	0	32784	
4813	0	32844	
4814	0	32842	
4815	0	32820	
4816	0	32836	
4817	0	32836	
4818	0	32834	
4819	0	32872	
4820	0	32844	
4821	0	32792	
4822	0	32848	
4823	0	32812	
4824	0	32884	
4825	0	32848	
4826	0	32768	
4827	0	32776	
4828	0	32828	
4829	0	32772	
4830	0	32820	
4831	0	32848	
4832	0	32856	
4833	0	32828	
4834	0	32848	
4835	0	32864	
4836	0	32712	
4837	0	32820	
4838	0	32812	
4839	0	32864	
4840	0	32820	
4841	0	32760	
4842	0	32821	
4843	0	32800	
4844	0	32812	
4845	0	32804	
4846	0	32824	
4847	0	32788	
4848	0	32760	
4849	0	32824	
4850	0	32820	
4851	0	32820	
4852	0	32848	
4853	0	32860	
4854	0	32832	
4855	0	32844	
4856	0	32908	
4857	0	32788	
4858	0	32820	
4859	0	32784	
4860	0	32808	
4861	0	32840	
4862	0	32808	
4863	0	32816	
4864	0	32840	
4865	0	32844	
4866	0	32812	
4867	0	32762	
4868	0	32852	
4869	0	32749	
4870	0	32860	
4871	0	32853	
4872	0	32864	
4873	0	32910	
4874	0	32896	
4875	0	32868	
4876	0	32832	
4877	0	32868	
4878	0	32796	
4879	0	32780	
4880	0	32832	
4881	0	32816	
4882	0	32776	
4883	0	32796	
4884	0	32788	
4885	0	32812	
4886	0	32834	
4887	0	32808	
4888	0	32824	
4889	0	32792	
4890	0	32800	
4891	0	32832	
4892	0	32852	
4893	0	32800	
4894	0	32816	
4895	0	32844	
4896	0	32856	
4897	0	32780	
4898	0	32804	
4899	0	32804	
4900	0	32844	
4901	0	32820	
4902	0	32852	
4903	0	32776	
4904	0	32804	
4905	0	32748	
4906	0	32834	
4907	0	32732	
4908	0	32828	
4909	0	32916	
4910	0	32864	
4911	0	32844	
4912	0	32840	
4913	0	32820	
4914	0	32788	
4915	0	32864	
4916	0	32820	
4917	0	32856	
4918	0	32828	
4919	0	32788	
4920	0	32840	
4921	0	32860	
4922	0	32864	
4923	0	32768	
4924	0	32844	
4925	0	32844	
4926	0	32760	
4927	0	32792	
4928	0	32857	
4929	0	32832	
4930	0	32840	
4931	0	32808	
4932	0	32856	
4933	0	32844	
4934	0	32860	
4935	0	32800	
4936	0	32904	
4937	0	32852	
4938	0	32768	
4939	0	32840	
4940	0	32884	
4941	0	32888	
4942	0	32912	
4943	0	32770	
4944	0	32828	
4945	0	32804	
4946	0	32788	
4947	0	32848	
4948	0	32792	
4949	0	32804	
4950	0	32816	
4951	0	32868	
4952	0	32880	
4953	0	32808	
4954	0	32784	
4955	0	32864	
4956	0	32788	
4957	0	32832	
4958	0	32908	
4959	0	32892	
4960	0	32852	
4961	0	32804	
4962	0	32728	
4963	0	32820	
4964	0	32816	
4965	0	32844	
4966	0	32832	
4967	0	32836	
4968	0	32864	
4969	0	32760	
4970	0	32760	
4971	0	32888	
4972	0	32856	
4973	0	32856	
4974	0	32836	
4975	0	32844	
4976	0	32800	
4977	0	32816	
4978	0	32856	
4979	0	32816	
4980	0	32864	
4981	0	32788	
4982	0	32724	
4983	0	32844	
4984	0	32864	
4985	0	32820	
4986	0	32840	
4987	0	32820	
4988	0	32820	
4989	0	32872	
4990	0	32764	
4991	0	32904	
4992	0	32716	
4993	0	32804	
4994	0	32856	
4995	0	32940	
4996	0	32816	
4997	0	32900	
4998	0	32756	
4999	0	32856	
5000	0	32772	
5001	0	32752	
5002	0	32820	
5003	0	32740	
5004	0	32792	
5005	0	32844	
5006	0	32852	
5007	0	32832	
5008	0	32724	
5009	0	32828	
5010	0	32868	
5011	0	32836	
5012	0	32788	
5013	0	32868	
5014	0	32820	
5015	0	32824	
5016	0	32840	
5017	0	32836	
5018	0	32856	
5019	0	32824	
5020	0	32852	
5021	0	32884	
5022	0	32794	
5023	0	32816	
5024	0	32816	
5025	0	32854	
5026	0	32788	
5027	0	32796	
5028	0	32796	
5029	0	32748	
5030	0	32776	
5031	0	32916	
5032	0	32868	
5033	0	32812	
5034	0	32856	
5035	0	32832	
5036	0	32880	
5037	0	32940	
5038	0	32842	
5039	0	32888	
5040	0	32836	
5041	0	32836	
5042	0	32812	
5043	0	32792	
5044	0	32824	
5045	0	32808	
5046	0	32824	
5047	0	32801	
5048	0	32900	
5049	0	32768	
5050	0	32808	
5051	0	32900	
5052	0	32740	
5053	0	32776	
5054	0	32796	
5055	0	32876	
5056	0	32858	
5057	0	32852	
5058	0	32832	
5059	0	32800	
5060	0	32812	
5061	0	32857	
5062	0	32824	
5063	0	32748	
5064	0	32824	
5065	0	32848	
5066	0	32792	
5067	0	32828	
5068	0	32736	
5069	0	32788	
5070	0	32816	
5071	0	32844	
5072	0	32768	
5073	0	32832	
5074	0	32820	
5075	0	32864	
5076	0	32868	
5077	0	32900	
5078	0	32852	
5079	0	32820	
5080	0	32904	
5081	0	32824	
5082	0	32808	
5083	0	32744	
5084	0	32784	
5085	0	32820	
5086	0	32872	
5087	0	32880	
5088	0	32752	
5089	0	32796	
5090	0	32832	
5091	0	32740	
5092	0	32772	
5093	0	32864	
5094	0	32861	
5095	0	32772	
5096	0	32922	
5097	0	32872	
5098	0	32820	
5099	0	32828	
5100	0	32856	
5101	0	32792	
5102	0	32856	
5103	0	32768	
5104	0	32872	
5105	0	32784	
5106	0	32808	
5107	0	32800	
5108	0	32852	
5109	0	32784	
5110	0	32828	
5111	0	32824	
5112	0	32872	
5113	0	32776	
5114	0	32808	
5115	0	32820	
5116	0	32812	
5117	0	32744	
5118	0	32832	
5119	0	32776	
5120	0	32816	
5121	0	32772	
5122	0	32836	
5123	0	32876	
5124	0	32832	
5125	0	32802	
5126	0	32816	
5127	0	32792	
5128	0	32844	
5129	0	32836	
5130	0	32783	
5131	0	32810	
5132	0	32788	
5133	0	32828	
5134	0	32816	
5135	0	32836	
5136	0	32880	
5137	0	32832	
5138	0	32832	
5139	0	32788	
5140	0	32828	
5141	0	32788	
5142	0	32848	
5143	0	32788	
5144	0	32834	
5145	0	32840	
5146	0	32756	
5147	0	32772	
5148	0	32820	
5149	0	32816	
5150	0	32864	
5151	0	32848	
5152	0	32820	
5153	0	32864	
5154	0	32816	
5155	0	32826	
5156	0	32846	
5157	0	32848	
5158	0	32816	
5159	0	32844	
5160	0	32824	
5161	0	32884	
5162	0	32808	
5163	0	32872	
5164	0	32808	
5165	0	32768	
5166	0	32820	
5167	0	32796	
5168	0	32776	
5169	0	32856	
5170	0	32816	
5171	0	32852	
5172	0	32816	
5173	0	32872	
5174	0	32852	
5175	0	32852	
5176	0	32852	
5177	0	32768	
5178	0	32820	
5179	0	32816	
5180	0	32856	
5181	0	32856	
5182	0	32752	
5183	0	32816	
5184	0	32840	
5185	0	32784	
5186	0	32808	
5187	0	32892	
5188	0	32840	
5189	0	32800	
5190	0	32888	
5191	0	32816	
5192	0	32832	
5193	0	32752	
5194	0	32788	
5195	0	32832	
5196	0	32832	
5197	0	32872	
5198	0	32820	
5199	0	32816	
5200	0	32798	
5201	0	32804	
5202	0	32872	
5203	0	32800	
5204	0	32798	
5205	0	32736	
5206	0	32848	
5207	0	32840	
5208	0	32872	
5209	0	32788	
5210	0	32870	
5211	0	32832	
5212	0	32864	
5213	0	32876	
5214	0	32880	
5215	0	32846	
5216	0	32782	
5217	0	32824	
5218	0	32844	
5219	0	32808	
5220	0	32864	
5221	0	32880	
5222	0	32781	
5223	0	32752	
5224	0	32792	
5225	0	32792	
5226	0	32792	
5227	0	32838	
5228	0	32808	
5229	0	32772	
5230	0	32852	
5231	0	32844	
5232	0	32808	
5233	0	32860	
5234	0	32880	
5235	0	32808	
5236	0	32844	
5237	0	32932	
5238	0	32792	
5239	0	32860	
5240	0	32772	
5241	0	32784	
5242	0	32836	
5243	0	32793	
5244	0	32860	
5245	0	32808	
5246	0	32772	
5247	0	32832	
5248	0	32784	
5249	0	32832	
5250	0	32856	
5251	0	32852	
5252	0	32812	
5253	0	32784	
5254	0	32760	
5255	0	32840	
5256	0	32884	
5257	0	32812	
5258	0	32896	
5259	0	32828	
5260	0	32832	
5261	0	32772	
5262	0	32820	
5263	0	32816	
5264	0	32872	
5265	0	32776	
5266	0	32748	
5267	0	32876	
5268	0	32814	
5269	0	32781	
5270	0	32848	
5271	0	32844	
5272	0	32872	
5273	0	32818	
5274	0	32812	
5275	0	32808	
5276	0	32784	
5277	0	32842	
5278	0	32904	
5279	0	32796	
5280	0	32788	
5281	0	32870	
5282	0	32900	
5283	0	32844	
5284	0	32768	
5285	0	32804	
5286	0	32808	
5287	0	32784	
5288	0	32748	
5289	0	32856	
5290	0	32804	
5291	0	32840	
5292	0	32832	
5293	0	32816	
5294	0	32864	
5295	0	32768	
5296	0	32856	
5297	0	32888	
5298	0	32776	
5299	0	32812	
5300	0	32832	
5301	0	32844	
5302	0	32808	
5303	0	32840	
5304	0	32736	
5305	0	32820	
5306	0	32728	
5307	0	32808	
5308	0	32816	
5309	0	32816	
5310	0	32800	
5311	0	32812	
5312	0	32892	
5313	0	32829	
5314	0	32812	
5315	0	32772	
5316	0	32876	
5317	0	32848	
5318	0	32864	
5319	0	32808	
5320	0	32860	
5321	0	32852	
5322	0	32760	
5323	0	32848	
5324	0	32840	
5325	0	32864	
5326	0	32828	
5327	0	32848	
5328	0	32788	
5329	0	32864	
5330	0	32836	
5331	0	32794	
5332	0	32864	
5333	0	32876	
5334	0	32824	
5335	0	32764	
5336	0	32868	
5337	0	32852	
5338	0	32812	
5339	0	32892	
5340	0	32808	
5341	0	32776	
5342	0	32868	
5343	0	32868	
5344	0	32812	
5345	0	32792	
5346	0	32760	
5347	0	32812	
5348	0	32840	
5349	0	32804	
5350	0	32784	
5351	0	32808	
5352	0	32888	
5353	0	32824	
5354	0	32762	
5355	0	32852	
5356	0	32808	
5357	0	32824	
5358	0	32884	
5359	0	32860	
5360	0	32864	
5361	0	32878	
5362	0	32822	
5363	0	32896	
5364	0	32800	
5365	0	32853	
5366	0	32900	
5367	0	32900	
5368	0	32728	
5369	0	32784	
5370	0	32804	
5371	0	32816	
5372	0	32856	
5373	0	32804	
5374	0	32844	
5375	0	32904	
5376	0	32852	
5377	0	32816	
5378	0	32844	
5379	0	32828	
5380	0	32852	
5381	0	32765	
5382	0	32792	
5383	0	32796	
5384	0	32856	
5385	0	32772	
5386	0	32816	
5387	0	32840	
5388	0	32846	
5389	0	32824	
5390	0	32780	
5391	0	32856	
5392	0	32840	
5393	0	32768	
5394	0	32860	
5395	0	32856	
5396	0	32840	
5397	0	32884	
5398	0	32872	
5399	0	32844	
5400	0	32824	
5401	0	32876	
5402	0	32780	
5403	0	32792	
5404	0	32788	
5405	0	32776	
5406	0	32816	
5407	0	32792	
5408	0	32720	
5409	0	32808	
5410	0	32888	
5411	0	32776	
5412	0	32908	
5413	0	32858	
5414	0	32820	
5415	0	32792	
5416	0	32848	
5417	0	32852	
5418	0	32808	
5419	0	32740	
5420	0	32828	
5421	0	32836	
5422	0	32844	
5423	0	32908	
5424	0	32740	
5425	0	32810	
5426	0	32800	
5427	0	32828	
5428	0	32780	
5429	0	32804	
5430	0	32808	
5431	0	32808	
5432	0	32892	
5433	0	32848	
5434	0	32858	
5435	0	32832	
5436	0	32816	
5437	0	32852	
5438	0	32868	
5439	0	32804	
5440	0	32836	
5441	0	32816	
5442	0	32812	
5443	0	32828	
5444	0	32852	
5445	0	32812	
5446	0	32804	
5447	0	32748	
5448	0	32792	
5449	0	32864	
5450	0	32840	
5451	0	32852	
5452	0	32848	
5453	0	32816	
5454	0	32840	
5455	0	32840	
5456	0	32836	
5457	0	32832	
5458	0	32824	
5459	0	32780	
5460	0	32750	
5461	0	32782	
5462	0	32908	
5463	0	32868	
5464	0	32836	
5465	0	32760	
5466	0	32788	
5467	0	32788	
5468	0	32852	
5469	0	32796	
5470	0	32877	
5471	0	32752	
5472	0	32796	
5473	0	32764	
5474	0	32860	
5475	0	32812	
5476	0	32836	
5477	0	32836	
5478	0	32844	
5479	0	32848	
5480	0	32856	
5481	0	32864	
5482	0	32836	
5483	0	32786	
5484	0	32808	
5485	0	32804	
5486	0	32792	
5487	0	32786	
5488	0	32756	
5489	0	32828	
5490	0	32816	
5491	0	32812	
5492	0	32816	
5493	0	32846	
5494	0	32897	
5495	0	32832	
5496	0	32752	
5497	0	32812	
5498	0	32860	
5499	0	32804	
5500	0	32840	
5501	0	32848	
5502	0	32868	
5503	0	32828	
5504	0	32804	
5505	0	32832	
5506	0	32848	
5507	0	32732	
5508	0	32868	
5509	0	32828	
5510	0	32788	
5511	0	32812	
5512	0	32806	
5513	0	32852	
5514	0	32920	
5515	0	32852	
5516	0	32775	
5517	0	32816	
5518	0	32840	
5519	0	32832	
5520	0	32824	
5521	0	32832	
5522	0	32816	
5523	0	32800	
5524	0	32852	
5525	0	32820	
5526	0	32836	
5527	0	32772	
5528	0	32808	
5529	0	32812	
5530	0	32768	
5531	0	32816	
5532	0	32828	
5533	0	32802	
5534	0	32888	
5535	0	32812	
5536	0	32824	
5537	0	32878	
5538	0	32856	
5539	0	32840	
5540	0	32864	
5541	0	32808	
5542	0	32800	
5543	0	32816	
5544	0	32812	
5545	0	32820	
5546	0	32846	
5547	0	32772	
5548	0	32808	
5549	0	32808	
5550	0	32816	
5551	0	32872	
5552	0	32826	
5553	0	32816	
5554	0	32840	
5555	0	32896	
5556	0	32814	
5557	0	32792	
5558	0	32922	
5559	0	32858	
5560	0	32876	
5561	0	32840	
5562	0	32840	
5563	0	32812	
5564	0	32752	
5565	0	32772	
5566	0	32852	
5567	0	32816	
5568	0	32848	
5569	0	32830	
5570	0	32812	
5571	0	32864	
5572	0	32856	
5573	0	32900	
5574	0	32788	
5575	0	32800	
5576	0	32844	
5577	0	32848	
5578	0	32788	
5579	0	32744	
5580	0	32832	
5581	0	32844	
5582	0	32820	
5583	0	32848	
5584	0	32806	
5585	0	32832	
5586	0	32784	
5587	0	32780	
5588	0	32722	
5589	0	32780	
5590	0	32836	
5591	0	32868	
5592	0	32816	
5593	0	32828	
5594	0	32792	
5595	0	32820	
5596	0	32846	
5597	0	32840	
5598	0	32808	
5599	0	32868	
5600	0	32872	
5601	0	32900	
5602	0	32852	
5603	0	32804	
5604	0	32888	
5605	0	32780	
5606	0	32744	
5607	0	32788	
5608	0	32824	
5609	0	32832	
5610	0	32832	
5611	0	32816	
5612	0	32832	
5613	0	32788	
5614	0	32821	
5615	0	32844	
5616	0	32808	
5617	0	32730	
5618	0	32840	
5619	0	32868	
5620	0	32900	
5621	0	32848	
5622	0	32793	
5623	0	32808	
5624	0	32816	
5625	0	32764	
5626	0	32842	
5627	0	32848	
5628	0	32896	
5629	0	32836	
5630	0	32826	
5631	0	32796	
5632	0	32880	
5633	0	32768	
5634	0	32740	
5635	0	32804	
5636	0	32775	
5637	0	32860	
5638	0	32848	
5639	0	32781	
5640	0	32772	
5641	0	32760	
5642	0	32824	
5643	0	32780	
5644	0	32816	
5645	0	32833	
5646	0	32792	
5647	0	32852	
5648	0	32832	
5649	0	32728	
5650	0	32892	
5651	0	32792	
5652	0	32814	
5653	0	32818	
5654	0	32816	
5655	0	32840	
5656	0	32836	
5657	0	32814	
5658	0	32836	
5659	0	32768	
5660	0	32896	
5661	0	32868	
5662	0	32824	
5663	0	32793	
5664	0	32788	
5665	0	32784	
5666	0	32772	
5667	0	32748	
5668	0	32836	
5669	0	32828	
5670	0	32856	
5671	0	32876	
5672	0	32864	
5673	0	32828	
5674	0	32832	
5675	0	32878	
5676	0	32888	
5677	0	32912	
5678	0	32832	
5679	0	32832	
5680	0	32816	
5681	0	32830	
5682	0	32780	
5683	0	32824	
5684	0	32808	
5685	0	32836	
5686	0	32784	
5687	0	32784	
5688	0	32794	
5689	0	32884	
5690	0	32836	
5691	0	32792	
5692	0	32800	
5693	0	32832	
5694	0	32857	
5695	0	32884	
5696	0	32836	
5697	0	32812	
5698	0	32824	
5699	0	32744	
5700	0	32844	
5701	0	32920	
5702	0	32852	
5703	0	32776	
5704	0	32856	
5705	0	32800	
5706	0	32820	
5707	0	32788	
5708	0	32872	
5709	0	32856	
5710	0	32816	
5711	0	32816	
5712	0	32860	
5713	0	32893	
5714	0	32840	
5715	0	32800	
5716	0	32852	
5717	0	32900	
5718	0	32808	
5719	0	32852	
5720	0	32808	
5721	0	32774	
5722	0	32848	
5723	0	32808	
5724	0	32830	
5725	0	32788	
5726	0	32740	
5727	0	32848	
5728	0	32856	
5729	0	32740	
5730	0	32860	
5731	0	32812	
5732	0	32840	
5733	0	32816	
5734	0	32880	
5735	0	32852	
5736	0	32872	
5737	0	32892	
5738	0	32868	
5739	0	32766	
5740	0	32820	
5741	0	32824	
5742	0	32852	
5743	0	32834	
5744	0	32784	
5745	0	32808	
5746	0	32824	
5747	0	32768	
5748	0	32796	
5749	0	32816	
5750	0	32844	
5751	0	32776	
5752	0	32832	
5753	0	32854	
5754	0	32868	
5755	0	32908	
5756	0	32804	
5757	0	32860	
5758	0	32804	
5759	0	32888	
5760	0	32808	
5761	0	32824	
5762	0	32810	
5763	0	32800	
5764	0	32840	
5765	0	32784	
5766	0	32845	
5767	0	32804	
5768	0	32812	
5769	0	32784	
5770	0	32864	
5771	0	32828	
5772	0	32816	
5773	0	32840	
5774	0	32822	
5775	0	32844	
5776	0	32864	
5777	0	32808	
5778	0	32768	
5779	0	32872	
5780	0	32812	
5781	0	32848	
5782	0	32812	
5783	0	32872	
5784	0	32872	
5785	0	32848	
5786	0	32798	
5787	0	32772	
5788	0	32788	
5789	0	32800	
5790	0	32856	
5791	0	32788	
5792	0	32816	
5793	0	32914	
5794	0	32880	
5795	0	32817	
5796	0	32764	
5797	0	32780	
5798	0	32796	
5799	0	32792	
5800	0	32856	
5801	0	32826	
5802	0	32876	
5803	0	32824	
5804	0	32864	
5805	0	32784	
5806	0	32808	
5807	0	32792	
5808	0	32824	
5809	0	32792	
5810	0	32816	
5811	0	32812	
5812	0	32832	
5813	0	32814	
5814	0	32864	
5815	0	32812	
5816	0	32856	
5817	0	32888	
5818	0	32844	
5819	0	32880	
5820	0	32816	
5821	0	32870	
5822	0	32781	
5823	0	32824	
5824	0	32804	
5825	0	32836	
5826	0	32798	
5827	0	32808	
5828	0	32812	
5829	0	32796	
5830	0	32812	
5831	0	32844	
5832	0	32760	
5833	0	32856	
5834	0	32912	
5835	0	32808	
5836	0	32812	
5837	0	32896	
5838	0	32816	
5839	0	32826	
5840	0	32880	
5841	0	32760	
5842	0	32812	
5843	0	32852	
5844	0	32744	
5845	0	32832	
5846	0	32820	
5847	0	32784	
5848	0	32892	
5849	0	32820	
5850	0	32861	
5851	0	32808	
5852	0	32844	
5853	0	32824	
5854	0	32836	
5855	0	32892	
5856	0	32876	
5857	0	32834	
5858	0	32824	
5859	0	32816	
5860	0	32844	
5861	0	32796	
5862	0	32804	
5863	0	32820	
5864	0	32824	
5865	0	32808	
5866	0	32896	
5867	0	32802	
5868	0	32829	
5869	0	32844	
5870	0	32868	
5871	0	32820	
5872	0	32768	
5873	0	32824	
5874	0	32844	
5875	0	32868	
5876	0	32840	
5877	0	32816	
5878	0	32848	
5879	0	32848	
5880	0	32792	
5881	0	32824	
5882	0	32776	
5883	0	32796	
5884	0	32790	
5885	0	32796	
5886	0	32776	
5887	0	32826	
5888	0	32816	
5889	0	32888	
5890	0	32842	
5891	0	32784	
5892	0	32804	
5893	0	32788	
5894	0	32820	
5895	0	32864	
5896	0	32832	
5897	0	32796	
5898	0	32866	
5899	0	32829	
5900	0	32816	
5901	0	32820	
5902	0	32816	
5903	0	32848	
5904	0	32812	
5905	0	32792	
5906	0	32780	
5907	0	32840	
5908	0	32756	
5909	0	32794	
5910	0	32816	
5911	0	32806	
5912	0	32856	
5913	0	32884	
5914	0	32792	
5915	0	32864	
5916	0	32848	
5917	0	32816	
5918	0	32852	
5919	0	32896	
5920	0	32812	
5921	0	32816	
5922	0	32804	
5923	0	32804	
5924	0	32796	
5925	0	32796	
5926	0	32812	
5927	0	32848	
5928	0	32800	
5929	0	32792	
5930	0	32804	
5931	0	32808	
5932	0	32872	
5933	0	32856	
5934	0	32864	
5935	0	32872	
5936	0	32820	
5937	0	32796	
5938	0	32824	
5939	0	32864	
5940	0	32796	
5941	0	32816	
5942	0	32764	
5943	0	32752	
5944	0	32884	
5945	0	32775	
5946	0	32824	
5947	0	32848	
5948	0	32800	
5949	0	32868	
5950	0	32820	
5951	0	32820	
5952	0	32844	
5953	0	32820	
5954	0	32912	
5955	0	32836	
5956	0	32812	
5957	0	32772	
5958	0	32808	
5959	0	32832	
5960	0	32836	
5961	0	32856	
5962	0	32816	
5963	0	32864	
5964	0	32880	
5965	0	32836	
5966	0	32800	
5967	0	32720	
5968	0	32772	
5969	0	32876	
5970	0	32836	
5971	0	32832	
5972	0	32872	
5973	0	32840	
5974	0	32892	
5975	0	32856	
5976	0	32808	
5977	0	32804	
5978	0	32824	
5979	0	32768	
5980	0	32832	
5981	0	32792	
5982	0	32824	
5983	0	32868	
5984	0	32910	
5985	0	32800	
5986	0	32820	
5987	0	32852	
5988	0	32800	
5989	0	32873	
5990	0	32848	
5991	0	32800	
5992	0	32816	
5993	0	32784	
5994	0	32808	
5995	0	32836	
5996	0	32936	
5997	0	32848	
5998	0	32808	
5999	0	32820	
6000	0	32840	
6001	0	32868	
6002	0	32826	
6003	0	32858	
6004	0	32800	
6005	0	32776	
6006	0	32852	
6007	0	32797	
6008	0	32800	
6009	0	32828	
6010	0	32712	
6011	0	32808	
6012	0	32872	
6013	0	32800	
6014	0	32884	
6015	0	32840	
6016	0	32892	
6017	0	32860	
6018	0	32826	
6019	0	32840	
6020	0	32852	
6021	0	32846	
6022	0	32856	
6023	0	32880	
6024	0	32800	
6025	0	32848	
6026	0	32836	
6027	0	32808	
6028	0	32812	
6029	0	32828	
6030	0	32792	
6031	0	32872	
6032	0	32864	
6033	0	32804	
6034	0	32884	
6035	0	32844	
6036	0	32848	
6037	0	32824	
6038	0	32848	
6039	0	32836	
6040	0	32832	
6041	0	32792	
6042	0	32748	
6043	0	32832	
6044	0	32848	
6045	0	32836	
6046	0	32852	
6047	0	32784	
6048	0	32880	
6049	0	32796	
6050	0	32756	
6051	0	32824	
6052	0	32840	
6053	0	32828	
6054	0	32792	
6055	0	32832	
6056	0	32768	
6057	0	32788	
6058	0	32788	
6059	0	32812	
6060	0	32812	
6061	0	32832	
6062	0	32832	
6063	0	32880	
6064	0	32836	
6065	0	32800	
6066	0	32884	
6067	0	32812	
6068	0	32852	
6069	0	32832	
6070	0	32824	
6071	0	32816	
6072	0	32757	
6073	0	32820	
6074	0	32784	
6075	0	32816	
6076	0	32837	
6077	0	32836	
6078	0	32848	
6079	0	32868	
6080	0	32868	
6081	0	32870	
6082	0	32852	
6083	0	32812	
6084	0	32768	
6085	0	32896	
6086	0	32836	
6087	0	32768	
6088	0	32844	
6089	0	32784	
6090	0	32833	
6091	0	32800	
6092	0	32828	
6093	0	32832	
6094	0	32864	
6095	0	32848	
6096	0	32860	
6097	0	32832	
6098	0	32848	
6099	0	32816	
6100	0	32868	
6101	0	32824	
6102	0	32760	
6103	0	32784	
6104	0	32834	
6105	0	32816	
6106	0	32760	
6107	0	32832	
6108	0	32864	
6109	0	32852	
6110	0	32844	
6111	0	32812	
6112	0	32848	
6113	0	32796	
6114	0	32868	
6115	0	32876	
6116	0	32756	
6117	0	32862	
6118	0	32820	
6119	0	32800	
6120	0	32848	
6121	0	32876	
6122	0	32808	
6123	0	32825	
6124	0	32830	
6125	0	32856	
6126	0	32812	
6127	0	32784	
6128	0	32800	
6129	0	32820	
6130	0	32788	
6131	0	32788	
6132	0	32820	
6133	0	32800	
6134	0	32836	
6135	0	32884	
6136	0	32864	
6137	0	32776	
6138	0	32846	
6139	0	32856	
6140	0	32824	
6141	0	32776	
6142	0	32796	
6143	0	32812	
6144	0	32820	
6145	0	32878	
6146	0	32861	
6147	0	32781	
6148	0	32752	
6149	0	32844	
6150	0	32812	
6151	0	32820	
6152	0	32832	
6153	0	32792	
6154	0	32836	
6155	0	32824	
6156	0	32804	
6157	0	32856	
6158	0	32808	
6159	0	32872	
6160	0	32812	
6161	0	32805	
6162	0	32796	
6163	0	32828	
6164	0	32840	
6165	0	32824	
6166	0	32832	
6167	0	32816	
6168	0	32868	
6169	0	32832	
6170	0	32760	
6171	0	32816	
6172	0	32824	
6173	0	32772	
6174	0	32836	
6175	0	32860	
6176	0	32820	
6177	0	32778	
6178	0	32840	
6179	0	32820	
6180	0	32832	
6181	0	32856	
6182	0	32820	
6183	0	32824	
6184	0	32812	
6185	0	32764	
6186	0	32760	
6187	0	32780	
6188	0	32808	
6189	0	32868	
6190	0	32836	
6191	0	32816	
6192	0	32836	
6193	0	32832	
6194	0	32810	
6195	0	32808	
6196	0	32784	
6197	0	32828	
6198	0	32864	
6199	0	32812	
6200	0	32836	
6201	0	32816	
6202	0	32792	
6203	0	32868	
6204	0	32800	
6205	0	32812	
6206	0	32800	
6207	0	32836	
6208	0	32896	
6209	0	32804	
6210	0	32772	
6211	0	32856	
6212	0	32872	
6213	0	32812	
6214	0	32909	
6215	0	32836	
6216	0	32864	
6217	0	32916	
6218	0	32830	
6219	0	32796	
6220	0	32884	
6221	0	32820	
6222	0	32800	
6223	0	32812	
6224	0	32760	
6225	0	32812	
6226	0	32804	
6227	0	32812	
6228	0	32904	
6229	0	32810	
6230	0	32816	
6231	0	32820	
6232	0	32776	
6233	0	32840	
6234	0	32848	
6235	0	32848	
6236	0	32832	
6237	0	32818	
6238	0	32774	
6239	0	32877	
6240	0	32808	
6241	0	32884	
6242	0	32796	
6243	0	32796	
6244	0	32789	
6245	0	32848	
6246	0	32820	
6247	0	32856	
6248	0	32804	
6249	0	32844	
6250	0	32860	
6251	0	32780	
6252	0	32768	
6253	0	32872	
6254	0	32840	
6255	0	32868	
6256	0	32828	
6257	0	32812	
6258	0	32790	
6259	0	32760	
6260	0	32796	
6261	0	32800	
6262	0	32868	
6263	0	32784	
6264	0	32862	
6265	0	32780	
6266	0	32814	
6267	0	32772	
6268	0	32864	
6269	0	32848	
6270	0	32784	
6271	0	32856	
6272	0	32816	
6273	0	32792	
6274	0	32812	
6275	0	32856	
6276	0	32840	
6277	0	32928	
6278	0	32804	
6279	0	32808	
6280	0	32884	
6281	0	32824	
6282	0	32820	
6283	0	32832	
6284	0	32836	
6285	0	32840	
6286	0	32836	
6287	0	32740	
6288	0	32828	
6289	0	32816	
6290	0	32764	
6291	0	32853	
6292	0	32824	
6293	0	32772	
6294	0	32748	
6295	0	32820	
6296	0	32868	
6297	0	32816	
6298	0	32852	
6299	0	32848	
6300	0	32828	
6301	0	32804	
6302	0	32760	
6303	0	32824	
6304	0	32848	
6305	0	32816	
6306	0	32852	
6307	0	32804	
6308	0	32788	
6309	0	32836	
6310	0	32860	
6311	0	32844	
6312	0	32796	
6313	0	32848	
6314	0	32816	
6315	0	32832	
6316	0	32872	
6317	0	32832	
6318	0	32848	
6319	0	32816	
6320	0	32840	
6321	0	32860	
6322	0	32776	
6323	0	32816	
6324	0	32860	
6325	0	32800	
6326	0	32820	
6327	0	32820	
6328	0	32814	
6329	0	32824	
6330	0	32784	
6331	0	32820	
6332	0	32856	
6333	0	32852	
6334	0	32832	
6335	0	32836	
6336	0	32808	
6337	0	32848	
6338	0	32820	
6339	0	32768	
6340	0	32884	
6341	0	32776	
6342	0	32757	
6343	0	32752	
6344	0	32756	
6345	0	32800	
6346	0	32846	
6347	0	32864	
6348	0	32880	
6349	0	32816	
6350	0	32760	
6351	0	32845	
6352	0	32920	
6353	0	32888	
6354	0	32788	
6355	0	32856	
6356	0	32824	
6357	0	32804	
6358	0	32816	
6359	0	32924	
6360	0	32876	
6361	0	32844	
6362	0	32840	
6363	0	32704	
6364	0	32772	
6365	0	32788	
6366	0	32784	
6367	0	32776	
6368	0	32776	
6369	0	32860	
6370	0	32844	
6371	0	32910	
6372	0	32836	
6373	0	32860	
6374	0	32840	
6375	0	32910	
6376	0	32896	
6377	0	32856	
6378	0	32800	
6379	0	32800	
6380	0	32844	
6381	0	32864	
6382	0	32864	
6383	0	32760	
6384	0	32808	
6385	0	32792	
6386	0	32784	
6387	0	32780	
6388	0	32796	
6389	0	32796	
6390	0	32840	
6391	0	32896	
6392	0	32924	
6393	0	32888	
6394	0	32784	
6395	0	32805	
6396	0	32856	
6397	0	32768	
6398	0	32696	
6399	0	32816	
6400	0	32912	
6401	0	32824	
6402	0	32828	
6403	0	32748	
6404	0	32856	
6405	0	32852	
6406	0	32844	
6407	0	32820	
6408	0	32916	
6409	0	32912	
6410	0	32804	
6411	0	32692	
6412	0	32704	
6413	0	32712	
6414	0	32826	
6415	0	32916	
6416	0	32872	
6417	0	32824	
6418	0	32853	
6419	0	32824	
6420	0	32750	
6421	0	32832	
6422	0	32796	
6423	0	32844	
6424	0	32860	
6425	0	32852	
6426	0	32816	
6427	0	32784	
6428	0	32680	
6429	0	32812	
6430	0	32864	
6431	0	32894	
6432	0	32848	
6433	0	32828	
6434	0	32852	
6435	0	32924	
6436	0	32852	
6437	0	32912	
6438	0	32898	
6439	0	32800	
6440	0	32794	
6441	0	32752	
6442	0	32772	
6443	0	32880	
6444	0	32788	
6445	0	32880	
6446	0	32900	
6447	0	32900	
6448	0	32932	
6449	0	32848	
6450	0	32792	
6451	0	32780	
6452	0	32844	
6453	0	32792	
6454	0	32801	
6455	0	32810	
6456	0	32788	
6457	0	32668	
6458	0	32840	
6459	0	32832	
6460	0	32864	
6461	0	32872	
6462	0	32944	
6463	0	32892	
6464	0	32825	
6465	0	32796	
6466	0	32848	
6467	0	32684	
6468	0	32776	
6469	0	32888	
6470	0	32872	
6471	0	32888	
6472	0	32796	
6473	0	32856	
6474	0	32838	
6475	0	32792	
6476	0	32840	
6477	0	32832	
6478	0	32816	
6479	0	32848	
6480	0	32780	
6481	0	32873	
6482	0	32824	
6483	0	32828	
6484	0	32824	
6485	0	32844	
6486	0	32828	
6487	0	32788	
6488	0	32816	
6489	0	32868	
6490	0	32836	
6491	0	32906	
6492	0	32808	
6493	0	32836	
6494	0	32816	
6495	0	32828	
6496	0	32896	
6497	0	32916	
6498	0	32820	
6499	0	32872	
6500	0	32820	
6501	0	32804	
6502	0	32724	
6503	0	32724	
6504	0	32772	
6505	0	32732	
6506	0	32824	
6507	0	32790	
6508	0	32832	
6509	0	32812	
6510	0	32884	
6511	0	32856	
6512	0	32916	
6513	0	32864	
6514	0	32844	
6515	0	32844	
6516	0	32782	
6517	0	32844	
6518	0	32844	
6519	0	32856	
6520	0	32856	
6521	0	32896	
6522	0	32924	
6523	0	32904	
6524	0	32760	
6525	0	32720	
6526	0	32796	
6527	0	32716	
6528	0	32756	
6529	0	32816	
6530	0	32868	
6531	0	32784	
6532	0	32868	
6533	0	32836	
6534	0	32812	
6535	0	32748	
6536	0	32748	
6537	0	32876	
6538	0	32888	
6539	0	32864	
6540	0	32840	
6541	0	32796	
6542	0	32800	
6543	0	32778	
6544	0	32884	
6545	0	32880	
6546	0	32828	
6547	0	32832	
6548	0	32824	
6549	0	32828	
6550	0	32756	
6551	0	32812	
6552	0	32796	
6553	0	32892	
6554	0	32840	
6555	0	32844	
6556	0	32808	
6557	0	32840	
6558	0	32844	
6559	0	32830	
6560	0	32820	
6561	0	32804	
6562	0	32844	
6563	0	32840	
6564	0	32812	
6565	0	32840	
6566	0	32848	
6567	0	32910	
6568	0	32788	
6569	0	32852	
6570	0	32856	
6571	0	32777	
6572	0	32712	
6573	0	32768	
6574	0	32800	
6575	0	32744	
6576	0	32844	
6577	0	32804	
6578	0	32796	
6579	0	32776	
6580	0	32856	
6581	0	32820	
6582	0	32888	
6583	0	32872	
6584	0	32840	
6585	0	32784	
6586	0	32836	
6587	0	32836	
6588	0	32848	
6589	0	32892	
6590	0	32856	
6591	0	32884	
6592	0	32884	
6593	0	32896	
6594	0	32836	
6595	0	32796	
6596	0	32753	
6597	0	32800	
6598	0	32872	
6599	0	32880	
6600	0	32816	
6601	0	32886	
6602	0	32844	
6603	0	32780	
6604	0	32812	
6605	0	32744	
6606	0	32844	
6607	0	32828	
6608	0	32832	
6609	0	32816	
6610	0	32860	
6611	0	32752	
6612	0	32888	
6613	0	32832	
6614	0	32872	
6615	0	32800	
6616	0	32860	
6617	0	32876	
6618	0	32832	
6619	0	32884	
6620	0	32888	
6621	0	32752	
6622	0	32740	
6623	0	32782	
6624	0	32828	
6625	0	32858	
6626	0	32784	
6627	0	32888	
6628	0	32816	
6629	0	32760	
6630	0	32832	
6631	0	32852	
6632	0	32876	
6633	0	32900	
6634	0	32832	
6635	0	32858	
6636	0	32800	
6637	0	32768	
6638	0	32820	
6639	0	32848	
6640	0	32848	
6641	0	32748	
6642	0	32768	
6643	0	32812	
6644	0	32864	
6645	0	32824	
6646	0	32844	
6647	0	32832	
6648	0	32852	
6649	0	32868	
6650	0	32744	
6651	0	32864	
6652	0	32828	
6653	0	32896	
6654	0	32872	
6655	0	32828	
6656	0	32876	
6657	0	32856	
6658	0	32820	
6659	0	32824	
6660	0	32832	
6661	0	32836	
6662	0	32784	
6663	0	32740	
6664	0	32790	
6665	0	32776	
6666	0	32820	
6667	0	32678	
6668	0	32816	
6669	0	32828	
6670	0	32868	
6671	0	32892	
6672	0	32884	
6673	0	32892	
6674	0	32868	
6675	0	32888	
6676	0	32928	
6677	0	32816	
6678	0	32816	
6679	0	32836	
6680	0	32900	
6681	0	32784	
6682	0	32804	
6683	0	32812	
6684	0	32800	
6685	0	32792	
6686	0	32756	
6687	0	32817	
6688	0	32872	
6689	0	32820	
6690	0	32876	
6691	0	32780	
6692	0	32784	
6693	0	32788	
6694	0	32816	
6695	0	32775	
6696	0	32796	
6697	0	32820	
6698	0	32812	
6699	0	32832	
6700	0	32800	
6701	0	32792	
6702	0	32812	
6703	0	32884	
6704	0	32816	
6705	0	32812	
6706	0	32772	
6707	0	32788	
6708	0	32776	
6709	0	32944	
6710	0	32852	
6711	0	32800	
6712	0	32916	
6713	0	32908	
6714	0	32848	
6715	0	32836	
6716	0	32772	
6717	0	32832	
6718	0	32836	
6719	0	32881	
6720	0	32780	
6721	0	32856	
6722	0	32850	
6723	0	32820	
6724	0	32844	
6725	0	32792	
6726	0	32892	
6727	0	32828	
6728	0	32864	
6729	0	32852	
6730	0	32808	
6731	0	32804	
6732	0	32868	
6733	0	32896	
6734	0	32900	
6735	0	32876	
6736	0	32820	
6737	0	32760	
6738	0	32768	
6739	0	32780	
6740	0	32768	
6741	0	32784	
6742	0	32788	
6743	0	32820	
6744	0	32864	
6745	0	32828	
6746	0	32836	
6747	0	32776	
6748	0	32794	
6749	0	32792	
6750	0	32776	
6751	0	32812	
6752	0	32813	
6753	0	32868	
6754	0	32893	
6755	0	32800	
6756	0	32844	
6757	0	32844	
6758	0	32836	
6759	0	32850	
6760	0	32808	
6761	0	32884	
6762	0	32784	
6763	0	32792	
6764	0	32804	
6765	0	32756	
6766	0	32780	
6767	0	32785	
6768	0	32760	
6769	0	32781	
6770	0	32880	
6771	0	32880	
6772	0	32892	
6773	0	32852	
6774	0	32824	
6775	0	32824	
6776	0	32864	
6777	0	32808	
6778	0	32872	
6779	0	32792	
6780	0	32780	
6781	0	32854	
6782	0	32820	
6783	0	32800	
6784	0	32765	
6785	0	32884	
6786	0	32852	
6787	0	32768	
6788	0	32780	
6789	0	32816	
6790	0	32876	
6791	0	32840	
6792	0	32848	
6793	0	32824	
6794	0	32864	
6795	0	32820	
6796	0	32800	
6797	0	32812	
6798	0	32836	
6799	0	32864	
6800	0	32840	
6801	0	32840	
6802	0	32833	
6803	0	32772	
6804	0	32784	
6805	0	32808	
6806	0	32860	
6807	0	32948	
6808	0	32833	
6809	0	32858	
6810	0	32912	
6811	0	32872	
6812	0	32864	
6813	0	32816	
6814	0	32840	
6815	0	32780	
6816	0	32900	
6817	0	32784	
6818	0	32744	
6819	0	32724	
6820	0	32768	
6821	0	32808	
6822	0	32740	
6823	0	32884	
6824	0	32892	
6825	0	32808	
6826	0	32808	
6827	0	32840	
6828	0	32828	
6829	0	32894	
6830	0	32768	
6831	0	32840	
6832	0	32840	
6833	0	32888	
6834	0	32892	
6835	0	32832	
6836	0	32860	
6837	0	32856	
6838	0	32780	
6839	0	32917	
6840	0	32916	
6841	0	32812	
6842	0	32836	
6843	0	32772	
6844	0	32764	
6845	0	32824	
6846	0	32856	
6847	0	32868	
6848	0	32776	
6849	0	32748	
6850	0	32672	
6851	0	32780	
6852	0	32808	
6853	0	32804	
6854	0	32900	
6855	0	32920	
6856	0	32864	
6857	0	32888	
6858	0	32884	
6859	0	32840	
6860	0	32784	
6861	0	32792	
6862	0	32796	
6863	0	32796	
6864	0	32816	
6865	0	32788	
6866	0	32844	
6867	0	32896	
6868	0	32816	
6869	0	32812	
6870	0	32844	
6871	0	32836	
6872	0	32900	
6873	0	32780	
6874	0	32784	
6875	0	32900	
6876	0	32784	
6877	0	32790	
6878	0	32758	
6879	0	32828	
6880	0	32792	
6881	0	32832	
6882	0	32824	
6883	0	32816	
6884	0	32788	
6885	0	32712	
6886	0	32848	
6887	0	32852	
6888	0	32872	
6889	0	32868	
6890	0	32908	
6891	0	32892	
6892	0	32812	
6893	0	32920	
6894	0	32944	
6895	0	32784	
6896	0	32768	
6897	0	32848	
6898	0	32816	
6899	0	32860	
6900	0	32896	
6901	0	32906	
6902	0	32828	
6903	0	32756	
6904	0	32840	
6905	0	32780	
6906	0	32776	
6907	0	32784	
6908	0	32796	
6909	0	32700	
6910	0	32776	
6911	0	32916	
6912	0	32912	
6913	0	32904	
6914	0	32872	
6915	0	32832	
6916	0	32814	
6917	0	32808	
6918	0	32797	
6919	0	32760	
6920	0	32832	
6921	0	32832	
6922	0	32820	
6923	0	32848	
6924	0	32784	
6925	0	32804	
6926	0	32868	
6927	0	32888	
6928	0	32836	
6929	0	32782	
6930	0	32852	
6931	0	32869	
6932	0	32832	
6933	0	32832	
6934	0	32848	
6935	0	32844	
6936	0	32784	
6937	0	32792	
6938	0	32794	
6939	0	32876	
6940	0	32832	
6941	0	32772	
6942	0	32775	
6943	0	32788	
6944	0	32820	
6945	0	32840	
6946	0	32782	
6947	0	32856	
6948	0	32850	
6949	0	32788	
6950	0	32864	
6951	0	32832	
6952	0	32848	
6953	0	32908	
6954	0	32824	
6955	0	32816	
6956	0	32824	
6957	0	32832	
6958	0	32864	
6959	0	32796	
6960	0	32808	
6961	0	32794	
6962	0	32780	
6963	0	32860	
6964	0	32828	
6965	0	32764	
6966	0	32728	
6967	0	32780	
6968	0	32704	
6969	0	32840	
6970	0	32792	
6971	0	32776	
6972	0	32844	
6973	0	32868	
6974	0	32944	
6975	0	32912	
6976	0	32860	
6977	0	32788	
6978	0	32896	
6979	0	32844	
6980	0	32848	
6981	0	32832	
6982	0	32860	
6983	0	32792	
6984	0	32792	
6985	0	32828	
6986	0	32876	
6987	0	32808	
6988	0	32864	
6989	0	32861	
6990	0	32804	
6991	0	32852	
6992	0	32797	
6993	0	32760	
6994	0	32768	
6995	0	32820	
6996	0	32840	
6997	0	32768	
6998	0	32824	
6999	0	32924	
7000	0	32888	
7001	0	32740	
7002	0	32772	
7003	0	32840	
7004	0	32820	
7005	0	32880	
7006	0	32808	
7007	0	32776	
7008	0	32776	
7009	0	32844	
7010	0	32800	
7011	0	32804	
7012	0	32868	
7013	0	32880	
7014	0	32784	
7015	0	32880	
7016	0	32856	
7017	0	32808	
7018	0	32756	
7019	0	32804	
7020	0	32804	
7021	0	32744	
7022	0	32840	
7023	0	32836	
7024	0	32860	
7025	0	32904	
7026	0	32904	
7027	0	32730	
7028	0	32752	
7029	0	32804	
7030	0	32824	
7031	0	32772	
7032	0	32808	
7033	0	32834	
7034	0	32816	
7035	0	32840	
7036	0	32868	
7037	0	32898	
7038	0	32836	
7039	0	32860	
7040	0	32872	
7041	0	32836	
7042	0	32820	
7043	0	32836	
7044	0	32772	
7045	0	32836	
7046	0	32800	
7047	0	32756	
7048	0	32774	
7049	0	32816	
7050	0	32856	
7051	0	32844	
7052	0	32920	
7053	0	32848	
7054	0	32868	
7055	0	32948	
7056	0	32870	
7057	0	32824	
7058	0	32774	
7059	0	32760	
7060	0	32784	
7061	0	32800	
7062	0	32660	
7063	0	32708	
7064	0	32796	
7065	0	32857	
7066	0	32894	
7067	0	32852	
7068	0	32852	
7069	0	32790	
7070	0	32916	
7071	0	32856	
7072	0	32884	
7073	0	32824	
7074	0	32816	
7075	0	32808	
7076	0	32772	
7077	0	32872	
7078	0	32880	
7079	0	32748	
7080	0	32872	
7081	0	32826	
7082	0	32824	
7083	0	32824	
7084	0	32800	
7085	0	32644	
7086	0	32728	
7087	0	32812	
7088	0	32720	
7089	0	32828	
7090	0	32880	
7091	0	32876	
7092	0	32852	
7093	0	32909	
7094	0	32896	
7095	0	32920	
7096	0	32868	
7097	0	32836	
7098	0	32848	
7099	0	32824	
7100	0	32804	
7101	0	32768	
7102	0	32820	
7103	0	32764	
7104	0	32700	
7105	0	32768	
7106	0	32776	
7107	0	32828	
7108	0	32832	
7109	0	32816	
7110	0	32864	
7111	0	32888	
7112	0	32842	
7113	0	32876	
7114	0	32840	
7115	0	32816	
7116	0	32800	
7117	0	32824	
7118	0	32788	
7119	0	32820	
7120	0	32824	
7121	0	32772	
7122	0	32832	
7123	0	32868	
7124	0	32904	
7125	0	32832	
7126	0	32864	
7127	0	32688	
7128	0	32756	
7129	0	32824	
7130	0	32828	
7131	0	32856	
7132	0	32820	
7133	0	32816	
7134	0	32852	
7135	0	32884	
7136	0	32792	
7137	0	32800	
7138	0	32832	
7139	0	32820	
7140	0	32796	
7141	0	32816	
7142	0	32824	
7143	0	32733	
7144	0	32844	
7145	0	32824	
7146	0	32852	
7147	0	32852	
7148	0	32830	
7149	0	32760	
7150	0	32776	
7151	0	32900	
7152	0	32900	
7153	0	32912	
7154	0	32844	
7155	0	32788	
7156	0	32796	
7157	0	32764	
7158	0	32860	
7159	0	32780	
7160	0	32764	
7161	0	32848	
7162	0	32832	
7163	0	32868	
7164	0	32880	
7165	0	32768	
7166	0	32900	
7167	0	32868	
7168	0	32748	
7169	0	32840	
7170	0	32860	
7171	0	32880	
7172	0	32836	
7173	0	32860	
7174	0	32916	
7175	0	32848	
7176	0	32860	
7177	0	32792	
7178	0	32812	
7179	0	32784	
7180	0	32724	
7181	0	32732	
7182	0	32824	
7183	0	32697	
7184	0	32748	
7185	0	32752	
7186	0	32856	
7187	0	32856	
7188	0	32848	
7189	0	32800	
7190	0	32780	
7191	0	32848	
7192	0	32932	
7193	0	32888	
7194	0	32864	
7195	0	32840	
7196	0	32860	
7197	0	32832	
7198	0	32792	
7199	0	32844	
7200	0	32824	
7201	0	32862	
7202	0	32824	
7203	0	32772	
7204	0	32864	
7205	0	32857	
7206	0	32800	
7207	0	32856	
7208	0	32889	
7209	0	32892	
7210	0	32816	
7211	0	32800	
7212	0	32832	
7213	0	32852	
7214	0	32784	
7215	0	32826	
7216	0	32756	
7217	0	32740	
7218	0	32796	
7219	0	32808	
7220	0	32816	
7221	0	32856	
7222	0	32820	
7223	0	32816	
7224	0	32828	
7225	0	32832	
7226	0	32846	
7227	0	32804	
7228	0	32796	
7229	0	32856	
7230	0	32820	
7231	0	32792	
7232	0	32844	
7233	0	32828	
7234	0	32840	
7235	0	32804	
7236	0	32860	
7237	0	32836	
7238	0	32868	
7239	0	32772	
7240	0	32792	
7241	0	32832	
7242	0	32896	
7243	0	32856	
7244	0	32724	
7245	0	32744	
7246	0	32744	
7247	0	32740	
7248	0	32804	
7249	0	32892	
7250	0	32852	
7251	0	32864	
7252	0	32928	
7253	0	32848	
7254	0	32792	
7255	0	32872	
7256	0	32828	
7257	0	32800	
7258	0	32772	
7259	0	32856	
7260	0	32700	
7261	0	32768	
7262	0	32740	
7263	0	32788	
7264	0	32840	
7265	0	32916	
7266	0	32876	
7267	0	32816	
7268	0	32816	
7269	0	32840	
7270	0	32832	
7271	0	32872	
7272	0	32762	
7273	0	32824	
7274	0	32748	
7275	0	32804	
7276	0	32884	
7277	0	32776	
7278	0	32880	
7279	0	32852	
7280	0	32894	
7281	0	32840	
7282	0	32828	
7283	0	32784	
7284	0	32796	
7285	0	32780	
7286	0	32802	
7287	0	32880	
7288	0	32864	
7289	0	32734	
7290	0	32828	
7291	0	32776	
7292	0	32820	
7293	0	32896	
7294	0	32868	
7295	0	32848	
7296	0	32868	
7297	0	32924	
7298	0	32816	
7299	0	32760	
7300	0	32732	
7301	0	32696	
7302	0	32756	
7303	0	32808	
7304	0	32900	
7305	0	32816	
7306	0	32844	
7307	0	32832	
7308	0	32888	
7309	0	32838	
7310	0	32848	
7311	0	32812	
7312	0	32820	
7313	0	32828	
7314	0	32808	
7315	0	32896	
7316	0	32936	
7317	0	32808	
7318	0	32821	
7319	0	32866	
7320	0	32890	
7321	0	32829	
7322	0	32828	
7323	0	32732	
7324	0	32820	
7325	0	32745	
7326	0	32784	
7327	0	32836	
7328	0	32760	
7329	0	32780	
7330	0	32888	
7331	0	32868	
7332	0	32828	
7333	0	32856	
7334	0	32890	
7335	0	32872	
7336	0	32812	
7337	0	32812	
7338	0	32784	
7339	0	32848	
7340	0	32800	
7341	0	32856	
7342	0	32796	
7343	0	32860	
7344	0	32826	
7345	0	32780	
7346	0	32768	
7347	0	32792	
7348	0	32824	
7349	0	32860	
7350	0	32904	
7351	0	32832	
7352	0	32784	
7353	0	32844	
7354	0	32892	
7355	0	32780	
7356	0	32728	
7357	0	32816	
7358	0	32788	
7359	0	32720	
7360	0	32708	
7361	0	32788	
7362	0	32864	
7363	0	32888	
7364	0	32912	
7365	0	32900	
7366	0	32852	
7367	0	32812	
7368	0	32860	
7369	0	32888	
7370	0	32896	
7371	0	32884	
7372	0	32832	
7373	0	32880	
7374	0	32844	
7375	0	32828	
7376	0	32748	
7377	0	32740	
7378	0	32760	
7379	0	32856	
7380	0	32832	
7381	0	32780	
7382	0	32876	
7383	0	32840	
7384	0	32848	
7385	0	32748	
7386	0	32792	
7387	0	32848	
7388	0	32828	
7389	0	32900	
7390	0	32864	
7391	0	32832	
7392	0	32864	
7393	0	32908	
7394	0	32816	
7395	0	32780	
7396	0	32796	
7397	0	32832	
7398	0	32720	
7399	0	32728	
7400	0	32744	
7401	0	32872	
7402	0	32876	
7403	0	32848	
7404	0	32920	
7405	0	32884	
7406	0	32828	
7407	0	32806	
7408	0	32840	
7409	0	32800	
7410	0	32792	
7411	0	32732	
7412	0	32750	
7413	0	32858	
7414	0	32840	
7415	0	32860	
7416	0	32840	
7417	0	32876	
7418	0	32821	
7419	0	32800	
7420	0	32844	
7421	0	32900	
7422	0	32724	
7423	0	32780	
7424	0	32864	
7425	0	32800	
7426	0	32840	
7427	0	32792	
7428	0	32788	
7429	0	32836	
7430	0	32780	
7431	0	32836	
7432	0	32832	
7433	0	32772	
7434	0	32794	
7435	0	32814	
7436	0	32884	
7437	0	32884	
7438	0	32850	
7439	0	32852	
7440	0	32775	
7441	0	32852	
7442	0	32768	
7443	0	32868	
7444	0	32868	
7445	0	32820	
7446	0	32744	
7447	0	32832	
7448	0	32828	
7449	0	32864	
7450	0	32860	
7451	0	32816	
7452	0	32836	
7453	0	32848	
7454	0	32872	
7455	0	32904	
7456	0	32880	
7457	0	32780	
7458	0	32832	
7459	0	32836	
7460	0	32800	
7461	0	32792	
7462	0	32780	
7463	0	32792	
7464	0	32832	
7465	0	32820	
7466	0	32774	
7467	0	32816	
7468	0	32804	
7469	0	32840	
7470	0	32804	
7471	0	32752	
7472	0	32792	
7473	0	32792	
7474	0	32876	
7475	0	32824	
7476	0	32932	
7477	0	32892	
7478	0	32840	
7479	0	32896	
7480	0	32864	
7481	0	32764	
7482	0	32632	
7483	0	32800	
7484	0	32788	
7485	0	32804	
7486	0	32808	
7487	0	32800	
7488	0	32778	
7489	0	32744	
7490	0	32852	
7491	0	32848	
7492	0	32834	
7493	0	32848	
7494	0	32964	
7495	0	32924	
7496	0	32784	
7497	0	32796	
7498	0	32740	
7499	0	32788	
7500	0	32772	
7501	0	32852	
7502	0	32870	
7503	0	32844	
7504	0	32792	
7505	0	32796	
7506	0	32808	
7507	0	32828	
7508	0	32852	
7509	0	32780	
7510	0	32840	
7511	0	32764	
7512	0	32816	
7513	0	32860	
7514	0	32920	
7515	0	32892	
7516	0	32864	
7517	0	32836	
7518	0	32824	
7519	0	32786	
7520	0	32764	
7521	0	32784	
7522	0	32752	
7523	0	32800	
7524	0	32880	
7525	0	32864	
7526	0	32852	
7527	0	32848	
7528	0	32804	
7529	0	32816	
7530	0	32832	
7531	0	32884	
7532	0	32856	
7533	0	32848	
7534	0	32816	
7535	0	32804	
7536	0	32848	
7537	0	32800	
7538	0	32808	
7539	0	32848	
7540	0	32860	
7541	0	32852	
7542	0	32776	
7543	0	32788	
7544	0	32848	
7545	0	32818	
7546	0	32720	
7547	0	32724	
7548	0	32748	
7549	0	32816	
7550	0	32794	
7551	0	32824	
7552	0	32866	
7553	0	32897	
7554	0	32880	
7555	0	32820	
7556	0	32808	
7557	0	32788	
7558	0	32796	
7559	0	32876	
7560	0	32888	
7561	0	32844	
7562	0	32836	
7563	0	32788	
7564	0	32836	
7565	0	32772	
7566	0	32852	
7567	0	32856	
7568	0	32864	
7569	0	32824	
7570	0	32880	
7571	0	32856	
7572	0	32828	
7573	0	32840	
7574	0	32824	
7575	0	32805	
7576	0	32818	
7577	0	32853	
7578	0	32876	
7579	0	32808	
7580	0	32784	
7581	0	32884	
7582	0	32780	
7583	0	32800	
7584	0	32744	
7585	0	32784	
7586	0	32844	
7587	0	32874	
7588	0	32820	
7589	0	32828	
7590	0	32876	
7591	0	32836	
7592	0	32824	
7593	0	32852	
7594	0	32792	
7595	0	32824	
7596	0	32888	
7597	0	32848	
7598	0	32804	
7599	0	32816	
7600	0	32740	
7601	0	32868	
7602	0	32808	
7603	0	32882	
7604	0	32832	
7605	0	32848	
7606	0	32797	
7607	0	32804	
7608	0	32800	
7609	0	32784	
7610	0	32832	
7611	0	32880	
7612	0	32824	
7613	0	32860	
7614	0	32872	
7615	0	32844	
7616	0	32780	
7617	0	32792	
7618	0	32816	
7619	0	32864	
7620	0	32832	
7621	0	32880	
7622	0	32864	
7623	0	32884	
7624	0	32768	
7625	0	32741	
7626	0	32776	
7627	0	32812	
7628	0	32824	
7629	0	32764	
7630	0	32849	
7631	0	32808	
7632	0	32833	
7633	0	32896	
7634	0	32856	
7635	0	32804	
7636	0	32862	
7637	0	32820	
7638	0	32756	
7639	0	32766	
7640	0	32832	
7641	0	32884	
7642	0	32796	
7643	0	32698	
7644	0	32832	
7645	0	32852	
7646	0	32860	
7647	0	32798	
7648	0	32784	
7649	0	32885	
7650	0	32824	
7651	0	32872	
7652	0	32880	
7653	0	32892	
7654	0	32840	
7655	0	32836	
7656	0	32896	
7657	0	32864	
7658	0	32824	
7659	0	32808	
7660	0	32812	
7661	0	32846	
7662	0	32788	
7663	0	32824	
7664	0	32920	
7665	0	32792	
7666	0	32796	
7667	0	32840	
7668	0	32852	
7669	0	32824	
7670	0	32816	
7671	0	32856	
7672	0	32856	
7673	0	32836	
7674	0	32826	
7675	0	32768	
7676	0	32844	
7677	0	32808	
7678	0	32808	
7679	0	32892	
7680	0	32846	
7681	0	32848	
7682	0	32792	
7683	0	32812	
7684	0	32864	
7685	0	32852	
7686	0	32744	
7687	0	32768	
7688	0	32760	
7689	0	32864	
7690	0	32848	
7691	0	32884	
7692	0	32852	
7693	0	32896	
7694	0	32864	
7695	0	32836	
7696	0	32856	
7697	0	32852	
7698	0	32784	
7699	0	32768	
7700	0	32796	
7701	0	32828	
7702	0	32816	
7703	0	32856	
7704	0	32816	
7705	0	32816	
7706	0	32820	
7707	0	32812	
7708	0	32804	
7709	0	32782	
7710	0	32816	
7711	0	32840	
7712	0	32860	
7713	0	32832	
7714	0	32752	
7715	0	32848	
7716	0	32892	
7717	0	32848	
7718	0	32824	
7719	0	32840	
7720	0	32900	
7721	0	32772	
7722	0	32776	
7723	0	32832	
7724	0	32884	
7725	0	32788	
7726	0	32796	
7727	0	32752	
7728	0	32780	
7729	0	32844	
7730	0	32884	
7731	0	32784	
7732	0	32812	
7733	0	32846	
7734	0	32844	
7735	0	32856	
7736	0	32904	
7737	0	32868	
7738	0	32816	
7739	0	32820	
7740	0	32788	
7741	0	32800	
7742	0	32738	
7743	0	32748	
7744	0	32864	
7745	0	32884	
7746	0	32860	
7747	0	32896	
7748	0	32840	
7749	0	32792	
7750	0	32776	
7751	0	32748	
7752	0	32784	
7753	0	32768	
7754	0	32808	
7755	0	32864	
7756	0	32912	
7757	0	32832	
7758	0	32888	
7759	0	32864	
7760	0	32832	
7761	0	32782	
7762	0	32776	
7763	0	32820	
7764	0	32816	
7765	0	32864	
7766	0	32856	
7767	0	32832	
7768	0	32832	
7769	0	32788	
7770	0	32846	
7771	0	32848	
7772	0	32836	
7773	0	32836	
7774	0	32848	
7775	0	32784	
7776	0	32832	
7777	0	32888	
7778	0	32824	
7779	0	32860	
7780	0	32840	
7781	0	32848	
7782	0	32804	
7783	0	32774	
7784	0	32780	
7785	0	32752	
7786	0	32864	
7787	0	32858	
7788	0	32908	
7789	0	32884	
7790	0	32792	
7791	0	32880	
7792	0	32860	
7793	0	32856	
7794	0	32836	
7795	0	32796	
7796	0	32772	
7797	0	32820	
7798	0	32768	
7799	0	32840	
7800	0	32808	
7801	0	32800	
7802	0	32764	
7803	0	32844	
7804	0	32846	
7805	0	32916	
7806	0	32884	
7807	0	32884	
7808	0	32784	
7809	0	32788	
7810	0	32812	
7811	0	32804	
7812	0	32824	
7813	0	32781	
7814	0	32856	
7815	0	32840	
7816	0	32848	
7817	0	32832	
7818	0	32842	
7819	0	32732	
7820	0	32858	
7821	0	32816	
7822	0	32768	
7823	0	32780	
7824	0	32916	
7825	0	32836	
7826	0	32800	
7827	0	32772	
7828	0	32716	
7829	0	32756	
7830	0	32844	
7831	0	32920	
7832	0	32909	
7833	0	32916	
7834	0	32828	
7835	0	32848	
7836	0	32908	
7837	0	32896	
7838	0	32832	
7839	0	32820	
7840	0	32788	
7841	0	32780	
7842	0	32820	
7843	0	32784	
7844	0	32776	
7845	0	32796	
7846	0	32772	
7847	0	32848	
7848	0	32792	
7849	0	32804	
7850	0	32816	
7851	0	32780	
7852	0	32848	
7853	0	32764	
7854	0	32764	
7855	0	32764	
7856	0	32800	
7857	0	32884	
7858	0	32856	
7859	0	32800	
7860	0	32908	
7861	0	32840	
7862	0	32876	
7863	0	32920	
7864	0	32800	
7865	0	32796	
7866	0	32788	
7867	0	32762	
7868	0	32728	
7869	0	32708	
7870	0	32700	
7871	0	32856	
7872	0	32796	
7873	0	32776	
7874	0	32844	
7875	0	32832	
7876	0	32848	
7877	0	32920	
7878	0	32792	
7879	0	32896	
7880	0	32848	
7881	0	32816	
7882	0	32820	
7883	0	32816	
7884	0	32844	
7885	0	32820	
7886	0	32884	
7887	0	32812	
7888	0	32944	
7889	0	32828	
7890	0	32872	
7891	0	32832	
7892	0	32868	
7893	0	32844	
7894	0	32816	
7895	0	32772	
7896	0	32822	
7897	0	32796	
7898	0	32800	
7899	0	32868	
7900	0	32836	
7901	0	32788	
7902	0	32740	
7903	0	32804	
7904	0	32846	
7905	0	32884	
7906	0	32864	
7907	0	32692	
7908	0	32804	
7909	0	32752	
7910	0	32852	
7911	0	32856	
7912	0	32828	
7913	0	32848	
7914	0	32816	
7915	0	32924	
7916	0	32844	
7917	0	32812	
7918	0	32864	
7919	0	32832	
7920	0	32900	
7921	0	32824	
7922	0	32812	
7923	0	32856	
7924	0	32840	
7925	0	32776	
7926	0	32852	
7927	0	32832	
7928	0	32730	
7929	0	32824	
7930	0	32880	
7931	0	32844	
7932	0	32776	
7933	0	32880	
7934	0	32892	
7935	0	32792	
7936	0	32844	
7937	0	32864	
7938	0	32820	
7939	0	32864	
7940	0	32768	
7941	0	32764	
7942	0	32836	
7943	0	32800	
7944	0	32876	
7945	0	32834	
7946	0	32816	
7947	0	32824	
7948	0	32860	
7949	0	32832	
7950	0	32816	
7951	0	32756	
7952	0	32832	
7953	0	32896	
7954	0	32908	
7955	0	32812	
7956	0	32800	
7957	0	32848	
7958	0	32852	
7959	0	32764	
7960	0	32716	
7961	0	32780	
7962	0	32840	
7963	0	32864	
7964	0	32832	
7965	0	32724	
7966	0	32756	
7967	0	32812	
7968	0	32800	
7969	0	32817	
7970	0	32830	
7971	0	32820	
7972	0	32908	
7973	0	32880	
7974	0	32936	
7975	0	32864	
7976	0	32856	
7977	0	32880	
7978	0	32824	
7979	0	32880	
7980	0	32844	
7981	0	32756	
7982	0	32704	
7983	0	32740	
7984	0	32716	
7985	0	32876	
7986	0	32824	
7987	0	32848	
7988	0	32856	
7989	0	32848	
7990	0	32902	
7991	0	32844	
7992	0	32862	
7993	0	32844	
7994	0	32892	
7995	0	32820	
7996	0	32804	
7997	0	32834	
7998	0	32804	
7999	0	32792	
8000	0	32792	
8001	0	32756	
8002	0	32736	
8003	0	32784	
8004	0	32816	
8005	0	32832	
8006	0	32848	
8007	0	32868	
8008	0	32864	
8009	0	32884	
8010	0	32816	
8011	0	32808	
8012	0	32824	
8013	0	32792	
8014	0	32832	
8015	0	32824	
8016	0	32836	
8017	0	32848	
8018	0	32826	
8019	0	32800	
8020	0	32720	
